time,amplitude
0.0,-0.07746039828156243
0.00200059880239521,-0.06789360472942642
0.00400119760479042,-0.05446632328131438
0.006001796407185629,-0.0383677022644672
0.00800239520958084,-0.021813050293496557
0.01000299401197605,-0.005039788308702174
0.012003592814371258,0.008697244718891642
0.014004191616766469,0.01813104416028484
0.01600479041916168,0.021988147399604648
0.018005389221556888,0.02299468149585176
0.0200059880239521,0.019882625304473177
0.022006586826347308,0.01639615287301846
0.024007185628742517,0.011297920048804616
0.02600778443113773,0.006375154291208499
0.028008383233532937,0.00044540875740253175
0.03000898203592815,-0.00763815414612191
0.03200958083832336,-0.018982077423257082
0.03401017964071857,-0.03264864000457974
0.036010778443113775,-0.049652708003463435
0.03801137724550899,-0.06795949633446367
0.0400119760479042,-0.08548331284615919
0.042012574850299404,-0.10308733778137649
0.044013173652694616,-0.1195844705548525
0.04601377245508983,-0.135739253954175
0.04801437125748503,-0.1522708633749074
0.050014970059880245,-0.17185712606463444
0.05201556886227546,-0.19313951305184227
0.05401616766467067,-0.2177290249515466
0.056016766467065875,-0.24321287263653135
0.05801736526946109,-0.269161835285746
0.0600179640718563,-0.2931381619834186
0.062018562874251504,-0.31470386921721155
0.06401916167664672,-0.3314292756360492
0.06601976047904193,-0.3439016075468683
0.06802035928143714,-0.35173350406107406
0.07002095808383235,-0.3575712496851691
0.07202155688622755,-0.3621025645543887
0.07402215568862276,-0.3650637884286517
0.07602275449101797,-0.3662463039286937
0.07802335329341319,-0.3635020571361596
0.0800239520958084,-0.35674804939399074
0.08202455089820361,-0.34396969263566857
0.08402514970059881,-0.3242229414963683
0.08602574850299402,-0.29863513841429096
0.08802634730538923,-0.2674045324691104
0.09002694610778444,-0.23379845834214194
0.09202754491017966,-0.19915018800802026
0.09402814371257487,-0.16485449405212907
0.09602874251497007,-0.13336198931757903
0.09802934131736528,-0.10417233239138465
0.10002994011976049,-0.07682641172892812
0.1020305389221557,-0.04889764250324859
0.10403113772455092,-0.01898252910276791
0.10603173652694613,0.013309337813816135
0.10803233532934134,0.05136566800963585
0.11003293413173654,0.09558205110715193
0.11203353293413175,0.14937253215889457
0.11403413173652696,0.21317998496415128
0.11603473053892217,0.29048608686720356
0.11803532934131739,0.3808207047774265
0.1200359281437126,0.48477051194271953
0.1220365269461078,0.5979866684124098
0.12403712574850301,0.7151914148967621
0.12603772455089823,0.8271834495506853
0.12803832335329343,0.9248419796989176
0.13003892215568863,0.9981293652428513
0.13203952095808386,1.0420922969620565
0.13404011976047905,1.0498614806258906
0.13604071856287428,1.0176498262150517
0.13804131736526948,0.9417491700564146
0.1400419161676647,0.8195255857298082
0.1420425149700599,0.6554133666526516
0.1440431137724551,0.4589077887466901
0.14604371257485033,0.24355678502951544
0.14804431137724552,0.028951684881761724
0.15004491017964075,-0.16428281130126582
0.15204550898203595,-0.32249923671846453
0.15404610778443115,-0.4390383456371997
0.15604670658682637,-0.5152402801264223
0.15804730538922157,-0.5614557092042382
0.1600479041916168,-0.5860567343563022
0.162048502994012,-0.6004473602040387
0.16404910179640722,-0.6110733378483573
0.16604970059880242,-0.6204312009080447
0.16805029940119762,-0.630076330259531
0.17005089820359284,-0.6386299026430551
0.17205149700598804,-0.6447846002422879
0.17405209580838327,-0.6473089826273037
0.17605269461077847,-0.6440504485848619
0.1780532934131737,-0.6329367428189316
0.1800538922155689,-0.6149759907362446
0.1820544910179641,-0.5882552729698324
0.1840550898203593,-0.5559377793685958
0.1860556886227545,-0.519258609332515
0.18805628742514974,-0.48251931106091045
0.19005688622754494,-0.4490812759964502
0.19205748502994013,-0.42035812602331524
0.19405808383233536,-0.3968072493983145
0.19605868263473056,-0.3749206566025856
0.19805928143712578,-0.35221533900954505
0.20005988023952098,-0.32722332125507364
0.2020604790419162,-0.29748160232854826
0.2040610778443114,-0.26352218061754873
0.2060616766467066,-0.22586235445456593
0.20806227544910183,-0.1869954822301025
0.21006287425149703,-0.15038237502975219
0.21206347305389225,-0.1184434802729886
0.21406407185628745,-0.09055199729618676
0.21606467065868268,-0.06902804561035726
0.21806526946107788,-0.05213398410666889
0.22006586826347307,-0.03807095525500617
0.2220664670658683,-0.025976702851197717
0.2240670658682635,-0.013924685648489851
0.22606766467065872,-0.003924482801438181
0.22806826347305392,0.005076539001007324
0.23006886227544915,0.011190351999435836
0.23206946107784435,0.014584266475413898
0.23407005988023954,0.012475903448609686
0.23607065868263477,0.0051272614734999816
0.23807125748502997,-0.005161985071072796
0.2400718562874252,-0.017061804948532013
0.2420724550898204,-0.02821958446048092
0.2440730538922156,-0.038268188340411964
0.24607365269461082,-0.04783413469620024
0.24807425149700602,-0.0555457116617248
0.25007485029940124,-0.06404086711775571
0.25207544910179647,-0.07297471002106859
0.25407604790419164,-0.08402647235507937
0.25607664670658686,-0.09490579423380721
0.2580772455089821,-0.10635821094032315
0.26007784431137726,-0.11516973929273444
0.2620784431137725,-0.1211704812899933
0.2640790419161677,-0.1242371850436009
0.26607964071856294,-0.12229472606883389
0.2680802395209581,-0.1183164955922747
0.27008083832335333,-0.11032370612618013
0.27208143712574856,-0.10138364766357569
0.27408203592814373,-0.09060694997451377
0.27608263473053896,-0.07914392717212297
0.2780832335329342,-0.06718009953984364
0.2800838323353294,-0.052931004184854684
0.2820844311377246,-0.03963642007463191
0.2840850299401198,-0.02455414414925931
0.28608562874251503,-0.009953463270274595
0.2880862275449102,0.004891528376288761
0.2900868263473054,0.01970861523327721
0.29208742514970065,0.034234000208985614
0.2940880239520959,0.04721855385996357
0.29608862275449105,0.061433636403079236
0.2980892215568863,0.07367636694196592
0.3000898203592815,0.08577422781537106
0.30209041916167667,0.09658890780144838
0.3040910179640719,0.10601930567956232
0.3060916167664671,0.1140036349576794
0.3080922155688623,0.12052059098701388
0.3100928143712575,0.12558956275403446
0.31209341317365275,0.13026989290052693
0.31409401197604797,0.1336592105121134
0.31609461077844314,0.1358908814810642
0.31809520958083837,0.13713064035638511
0.3200958083832336,0.13757248513769554
0.32209640718562876,0.13743393208110904
0.324097005988024,0.1359507409419768
0.3260976047904192,0.13637123190921682
0.32809820359281444,0.1369503235744049
0.3300988023952096,0.13894342647256192
0.33209940119760484,0.14260032894140412
0.33410000000000006,0.1481592112482851
0.33610059880239523,0.1558409201711631
0.33810119760479046,0.16284362959806195
0.3401017964071857,0.17133800339636535
0.3421023952095809,0.18146296502392872
0.3441029940119761,0.1923221643854301
0.3461035928143713,0.20498121660211896
0.34810419161676653,0.219465770021808
0.3501047904191617,0.23676044233923574
0.35210538922155693,0.2558086445366642
0.35410598802395216,0.2785132929146351
0.3561065868263474,0.3027383901898145
0.35810718562874255,0.3283114379107272
0.3601077844311378,0.35602662468707713
0.362108383233533,0.38464871832382896
0.3641089820359282,0.4129175752443253
0.3661095808383234,0.4415531678843383
0.3681101796407186,0.4702610203016473
0.37011077844311385,0.49873793428228247
0.372111377245509,0.5256778828877802
0.37411197604790425,0.5517779457715523
0.3761125748502995,0.5767441607303373
0.37811317365269465,0.6002971688213157
0.38011377245508987,0.6211775358800116
0.3821143712574851,0.640150641274346
0.38411497005988027,0.6560110350284207
0.3861155688622755,0.6705861767991265
0.3881161676646707,0.681739484299897
0.39011676646706595,0.6893726343129913
0.3921173652694611,0.6934270760599147
0.39411796407185634,0.6928847340336366
0.39611856287425157,0.6877678950485984
0.39811916167664674,0.6791382918439243
0.40011976047904196,0.6680954126958731
0.4021203592814372,0.6537740827849692
0.4041209580838324,0.637341378170985
0.4061215568862276,0.6199929468338383
0.4081221556886228,0.598948823055679
0.41012275449101804,0.5744488312064865
0.4121233532934132,0.5467476825571667
0.41412395209580843,0.5161098739366157
0.41612455089820366,0.4828044997827185
0.4181251497005989,0.44710008937762813
0.42012574850299406,0.4112595788267325
0.4221263473053893,0.3755355227151729
0.4241269461077845,0.34016564348519135
0.4261275449101797,0.305368807600886
0.4281281437125749,0.2703415067281127
0.43012874251497013,0.23625490971986696
0.43212934131736536,0.20425253745835895
0.4341299401197605,0.17444859788750636
0.43613053892215575,0.14592700321581287
0.438131137724551,0.12074107563281192
0.44013173652694615,0.09691393231855093
0.4421323353293414,0.07543952538598282
0.4441329341317366,0.0562842980187148
0.4461335329341318,0.03738940476875691
0.448134131736527,0.021673432050700707
0.4501347305389222,0.007035544566137094
0.45213532934131745,-0.005641025068304972
0.4541359281437126,-0.016485232661648256
0.45613652694610785,-0.025634318236384703
0.45813712574850307,-0.032229836833404045
0.4601377245508983,-0.03941371975758373
0.46213832335329347,-0.04532445933124479
0.4641389221556887,-0.0520935057348541
0.4661395209580839,-0.057841958021880066
0.4681401197604791,-0.0636776230693122
0.4701407185628743,-0.06869250627956332
0.47214131736526954,-0.07396078653130263
0.4741419161676647,-0.08053731546384901
0.47614251497005994,-0.0864566679726104
0.47814311377245516,-0.09273275710825471
0.4801437125748504,-0.10035901273467805
0.48214431137724556,-0.10730910963634668
0.4841449101796408,-0.11453821759345972
0.486145508982036,-0.11998473356891182
0.4881461077844312,-0.1255724448586495
0.4901467065868264,-0.13121306210371
0.49214730538922163,-0.1358090526718524
0.49414790419161686,-0.13925669827500103
0.49614850299401203,-0.14344929593912648
0.49814910179640726,-0.1462804186839104
0.5001497005988025,-0.14864715155135264
0.5021502994011977,-0.15245321994797206
0.5041508982035929,-0.15561193058887704
0.506151497005988,-0.15904885056153972
0.5081520958083833,-0.1627041570259584
0.5101526946107785,-0.1645345986584904
0.5121532934131737,-0.16551501991485684
0.514153892215569,-0.16463941028805057
0.5161544910179642,-0.16192145269801395
0.5181550898203594,-0.15739455768179944
0.5201556886227545,-0.152111382853028
0.5221562874251497,-0.14814284986036977
0.524156886227545,-0.14457668349107233
0.5261574850299402,-0.14151550934128113
0.5281580838323354,-0.13907455733012694
0.5301586826347306,-0.13537902801226595
0.5321592814371259,-0.12956118691527585
0.534159880239521,-0.12275725879970525
0.5361604790419162,-0.11610419865458851
0.5381610778443114,-0.10873641928601716
0.5401616766467067,-0.10278255646153772
0.5421622754491019,-0.09736235171552479
0.5441628742514971,-0.09358373012370419
0.5461634730538923,-0.08954014568799443
0.5481640718562875,-0.087308260549415
0.5501646706586827,-0.08594601622212555
0.5521652694610779,-0.08549114560860033
0.5541658682634731,-0.08696016394068509
0.5561664670658684,-0.08934786524785746
0.5581670658682636,-0.0926273387582745
0.5601676646706588,-0.09575050708144785
0.5621682634730539,-0.09964917540336471
0.5641688622754492,-0.10423656854677699
0.5661694610778444,-0.1084093209068176
0.5681700598802396,-0.1140498732480005
0.5701706586826348,-0.1200292204067871
0.5721712574850301,-0.12620994532249977
0.5741718562874253,-0.1314494677256596
0.5761724550898204,-0.1376034304180393
0.5781730538922156,-0.1425291425140889
0.5801736526946109,-0.1480889973670539
0.5821742514970061,-0.1531537832178649
0.5841748502994013,-0.15660580687736117
0.5861754491017965,-0.16034175493291355
0.5881760479041918,-0.16327522296414035
0.5901766467065869,-0.16633885092132794
0.5921772455089821,-0.16848601198666585
0.5941778443113773,-0.17069201268903827
0.5961784431137725,-0.1729547735336719
0.5981790419161678,-0.17429497166907737
0.600179640718563,-0.17475563985723866
0.6021802395209581,-0.17240122893860296
0.6041808383233533,-0.16831615378563056
0.6061814371257486,-0.16260285511411474
0.6081820359281438,-0.15537942117587036
0.610182634730539,-0.1477768240116038
0.6121832335329342,-0.14093583434320056
0.6141838323353295,-0.13500368710350868
0.6161844311377246,-0.13013057584615373
0.6181850299401198,-0.12546605869397967
0.620185628742515,-0.12015546096073826
0.6221862275449103,-0.1153363600502823
0.6241868263473055,-0.1111352366812331
0.6261874251497007,-0.10666437293100742
0.6281880239520959,-0.10301907211624424
0.6301886227544911,-0.10127526824776441
0.6321892215568863,-0.10148758388059605
0.6341898203592815,-0.1036878848260287
0.6361904191616767,-0.10588436864035983
0.638191017964072,-0.10906121132051814
0.6401916167664672,-0.11317878350975318
0.6421922155688624,-0.11617443405318645
0.6441928143712575,-0.119963825258859
0.6461934131736528,-0.12344279103255687
0.648194011976048,-0.12848967647659224
0.6501946107784432,-0.13296810587354463
0.6521952095808384,-0.13973011549583936
0.6541958083832337,-0.14661957864472466
0.6561964071856289,-0.15447584294913586
0.658197005988024,-0.16313749442986475
0.6601976047904192,-0.17144615929893497
0.6621982035928144,-0.1782502530140117
0.6641988023952097,-0.1844085867906861
0.6661994011976049,-0.18979374458963222
0.6682000000000001,-0.19229514848915166
0.6702005988023954,-0.19382173722571058
0.6722011976047905,-0.19430419138807853
0.6742017964071857,-0.19269664909306133
0.6762023952095809,-0.1899778677214841
0.6782029940119761,-0.18715180018631014
0.6802035928143714,-0.1852475679462593
0.6822041916167666,-0.1823188272517566
0.6842047904191618,-0.18044253958430173
0.6862053892215569,-0.1777171715870724
0.6882059880239522,-0.17326036364583533
0.6902065868263474,-0.16820611933554794
0.6922071856287426,-0.15970157988583716
0.6942077844311378,-0.15090345834773797
0.6962083832335331,-0.1399742170048116
0.6982089820359283,-0.13007807854070425
0.7002095808383234,-0.12037696637095233
0.7022101796407186,-0.11202647223456022
0.7042107784431139,-0.1051719495355752
0.7062113772455091,-0.09994482899412713
0.7082119760479043,-0.0944592489310969
0.7102125748502995,-0.08980908604539231
0.7122131736526948,-0.08406546397454487
0.7142137724550899,-0.0782748064348125
0.7162143712574851,-0.07245748953914238
0.7182149700598803,-0.06760713425488837
0.7202155688622756,-0.06269056518861107
0.7222161676646708,-0.059648446302537815
0.724216766467066,-0.05939658812847554
0.7262173652694612,-0.060827904916481386
0.7282179640718563,-0.06381498431001337
0.7302185628742516,-0.06821321694676286
0.7322191616766468,-0.07286441920442245
0.734219760479042,-0.07660086948368794
0.7362203592814373,-0.07924966726034506
0.7382209580838325,-0.08063731492348966
0.7402215568862277,-0.078594415385975
0.7422221556886228,-0.07496037379734734
0.744222754491018,-0.0695879895485682
0.7462233532934133,-0.06334782521604022
0.7482239520958085,-0.05613224217637889
0.7502245508982037,-0.049858998300471864
0.752225149700599,-0.04347431131408544
0.7542257485029942,-0.03895530194360536
0.7562263473053893,-0.03331174364541496
0.7582269461077845,-0.026587060291192784
0.7602275449101797,-0.01885852934834705
0.762228143712575,-0.007236665514812686
0.7642287425149702,0.007136221932153268
0.7662293413173654,0.02308828602983679
0.7682299401197605,0.038421182369357
0.7702305389221558,0.05291384327915727
0.772231137724551,0.06332691881524896
0.7742317365269462,0.06940780085868267
0.7762323353293414,0.07289613161855737
0.7782329341317367,0.07252968475310127
0.7802335329341319,0.06905049647091398
0.782234131736527,0.0652111156333851
0.7842347305389222,0.058780836270216734
0.7862353293413175,0.051551773208529175
0.7882359281437127,0.043344641806832125
0.7902365269461079,0.03201410611857792
0.7922371257485031,0.01945356616084241
0.7942377245508984,0.0045992642407201466
0.7962383233532935,-0.011566397660532282
0.7982389221556887,-0.03001242284545047
0.8002395209580839,-0.04965774372321383
0.8022401197604792,-0.07037076219446514
0.8042407185628744,-0.09096994389517482
0.8062413173652696,-0.11222548203523694
0.8082419161676648,-0.13286202428763855
0.81024251497006,-0.15356243364951733
0.8122431137724552,-0.17397253188213518
0.8142437125748504,-0.19470675251869796
0.8162443113772456,-0.21735460997397585
0.8182449101796408,-0.24148787244556635
0.8202455089820361,-0.26566830948230935
0.8222461077844313,-0.2894558706916554
0.8242467065868264,-0.31041714039905366
0.8262473053892216,-0.32713390443897516
0.8282479041916169,-0.3392116598688112
0.8302485029940121,-0.34628789640775653
0.8322491017964073,-0.35103997989743607
0.8342497005988025,-0.3531924730721236
0.8362502994011978,-0.35352373735368975
0.8382508982035929,-0.3528716711174459
0.8402514970059881,-0.3481384547073525
0.8422520958083833,-0.3382941901436707
0.8442526946107786,-0.3223793436329318
0.8462532934131738,-0.29950592127388664
0.848253892215569,-0.269857332321546
0.8502544910179642,-0.2356869195534802
0.8522550898203594,-0.2003151621780838
0.8542556886227546,-0.16412558281445794
0.8562562874251498,-0.13055941583063305
0.858256886227545,-0.09910911922626876
0.8602574850299403,-0.0703108357766095
0.8622580838323355,-0.04273593082922205
0.8642586826347307,-0.014981753511365211
0.8662592814371258,0.016338215244986534
0.868259880239521,0.0516046508773791
0.8702604790419163,0.09320292237609783
0.8722610778443115,0.14153368467669789
0.8742616766467067,0.19802332960791008
0.876262275449102,0.26513409972363505
0.8782628742514972,0.3433736741718347
0.8802634730538923,0.435304044345266
0.8822640718562875,0.5395495092691579
0.8842646706586827,0.6528036362851194
0.886265269461078,0.7688350512952732
0.8882658682634732,0.879491944278337
0.8902664670658684,0.97270519956604
0.8922670658682637,1.0424900860111432
0.8942676646706588,1.0819464691856795
0.896268263473054,1.0842575355889994
0.8982688622754492,1.0446870469707676
0.9002694610778444,0.9595751707279994
0.9022700598802397,0.8263329593657239
0.9042706586826349,0.6494355776814401
0.9062712574850301,0.43841440013427074
0.9082718562874252,0.21084812231761152
0.9102724550898205,-0.013646950857476603
0.9122730538922157,-0.2134272621129597
0.9142736526946109,-0.37583281363445364
0.9162742514970061,-0.4931982351166416
0.9182748502994014,-0.5678639048005133
0.9202754491017966,-0.6111869196623261
0.9222760479041917,-0.6325517142463281
0.9242766467065869,-0.6423801348437649
0.9262772455089822,-0.6491407866609209
0.9282778443113774,-0.6543574860655228
0.9302784431137726,-0.6606166676603052
0.9322790419161678,-0.6665736164475012
0.9342796407185631,-0.670957418304347
0.9362802395209582,-0.6705745469252713
0.9382808383233534,-0.6643110318005221
0.9402814371257486,-0.6491331791645641
0.9422820359281439,-0.6250868456142101
0.9442826347305391,-0.5932952917134215
0.9462832335329343,-0.553955669821397
0.9482838323353294,-0.5133342260714631
0.9502844311377247,-0.4727603203859356
0.9522850299401199,-0.43661939016922074
0.9542856287425151,-0.40634500245726257
0.9562862275449103,-0.3814101554503256
0.9582868263473056,-0.3583180032145624
0.9602874251497008,-0.334592186670546
0.9622880239520959,-0.30776695963143735
0.9642886227544911,-0.27737730052271053
0.9662892215568863,-0.24394919849961294
0.9682898203592816,-0.20599029704480884
0.9702904191616768,-0.1679810689191836
0.972291017964072,-0.13236668376743219
0.9742916167664672,-0.09954971402788794
0.9762922155688624,-0.07088380640469283
0.9782928143712576,-0.048668425425160186
0.9802934131736528,-0.03014475296609695
0.982294011976048,-0.015492803565731763
0.9842946107784433,-0.0028297903440043606
0.9862952095808385,0.008790249050297707
0.9882958083832337,0.019375582341130296
0.9902964071856288,0.027994708920773416
0.9922970059880241,0.03177314663304405
0.9942976047904193,0.03188916509507503
0.9962982035928145,0.02556857154196188
0.9982988023952097,0.015078672700642316
1.000299401197605,0.0027215509760201845
1.0023000000000002,-0.010173195010753809
1.0043005988023954,-0.022256086964128695
1.0063011976047906,-0.031165616810116113
