time,amplitude
0.0,-0.004809727316737428
0.002000239470769385,0.024234665181043478
0.00400047894153877,0.054559671545944266
0.006000718412308155,0.08358505502462131
0.00800095788307754,0.1080098418988924
0.010001197353846924,0.1269061329789646
0.01200143682461631,0.13677947219040953
0.014001676295385694,0.13659052679348815
0.01600191576615508,0.12573644434194273
0.018002155236924465,0.10799406120723395
0.020002394707693848,0.08343078102310685
0.022002634178463234,0.057292062088389724
0.02400287364923262,0.029876737531313126
0.026003113120002003,0.00441260286196462
0.02800335259077139,-0.01905529566336439
0.03000359206154077,-0.04075247406071835
0.03200383153231016,-0.06123009906860568
0.03400407100307954,-0.07938182214990493
0.03600431047384893,-0.09642074156070354
0.03800454994461831,-0.11081902766809847
0.040004789415387695,-0.12121673045660426
0.042005028886157085,-0.12930969982817264
0.04400526835692647,-0.13472903123555477
0.04600550782769585,-0.1389257254579174
0.04800574729846524,-0.1430741568981509
0.05000598676923462,-0.15000644477180772
0.052006226240004005,-0.15818701843298816
0.05400646571077339,-0.1687327957912741
0.05600670518154278,-0.17847979904977132
0.05800694465231216,-0.18609214427632184
0.06000718412308154,-0.18820463386368694
0.06200742359385093,-0.18358612659207346
0.06400766306462032,-0.16930788574276454
0.0660079025353897,-0.14589955014005765
0.06800814200615908,-0.11347545105807977
0.07000838147692846,-0.0758157762184432
0.07200862094769786,-0.03539046750760813
0.07400886041846724,0.005681517934136721
0.07600909988923663,0.044739240686763444
0.07800933936000601,0.08074857504234156
0.08000957883077539,0.11052213128750026
0.08200981830154477,0.13297421728034164
0.08401005777231417,0.14639049173641344
0.08601029724308355,0.14768933604311948
0.08801053671385294,0.1356512932937221
0.09001077618462232,0.10709433924591782
0.0920110156553917,0.061976222219989455
0.09401125512616108,0.0014104127711307593
0.09601149459693048,-0.07341105792535275
0.09801173406769986,-0.15738695880204442
0.10001197353846925,-0.24475961515851846
0.10201221300923863,-0.32743478799704046
0.10401245248000801,-0.39834602277633513
0.1060126919507774,-0.4518361105738803
0.10801293142154678,-0.48002574029883166
0.11001317089231617,-0.4791392835167431
0.11201341036308556,-0.443760029518809
0.11401364983385494,-0.3729919487589663
0.11601388930462432,-0.26451187075817895
0.1180141287753937,-0.12150429773355284
0.12001436824616309,0.05251972476987406
0.12201460771693248,0.24800894394138406
0.12401484718770187,0.4537440505130242
0.12601508665847125,0.654268988908671
0.12801532612924063,0.8343495278319498
0.13001556560001,0.9784244364010077
0.1320158050707794,1.0770146077438096
0.13401604454154878,1.12005825956509
0.13601628401231816,1.1021457245786217
0.13801652348308754,1.0196349091451253
0.14001676295385693,0.8716376467291386
0.14201700242462634,0.6658771684842831
0.14401724189539572,0.4164269461451102
0.1460174813661651,0.14235041537449003
0.14801772083693449,-0.13073119423106483
0.15001796030770387,-0.3761101423519091
0.15201819977847325,-0.5744668547397083
0.15401843924924263,-0.7143121823692845
0.15601867872001202,-0.793364185380717
0.1580189181907814,-0.8198317451730703
0.16001915766155078,-0.8015848237867477
0.16201939713232016,-0.7512002325768263
0.16401963660308955,-0.6778815929114053
0.16601987607385893,-0.5882619634541653
0.16802011554462834,-0.48910657557404463
0.17002035501539772,-0.38494054238892983
0.1720205944861671,-0.2806317071494921
0.1740208339569365,-0.1809615771230656
0.17602107342770587,-0.08921736963201868
0.17802131289847525,-0.00783562514114821
0.18002155236924464,0.05887711364899678
0.18202179184001402,0.11092793577127497
0.1840220313107834,0.1447150747443774
0.18602227078155278,0.1599976512767157
0.18802251025232217,0.154764637517463
0.19002274972309155,0.12901781628540523
0.19202298919386096,0.08548980904043407
0.19402322866463034,0.028322584347258668
0.19602346813539973,-0.03426606655346293
0.1980237076061691,-0.09530088784952542
0.2000239470769385,-0.14932769541729513
0.20202418654770787,-0.1906319391751384
0.20402442601847726,-0.2173831464840008
0.20602466548924664,-0.22869804047533718
0.20802490496001602,-0.22662236424206317
0.2100251444307854,-0.21503833857612428
0.2120253839015548,-0.19751065070728463
0.21402562337232417,-0.1750884297407192
0.21602586284309355,-0.1520834686822701
0.21802610231386296,-0.1288458287112642
0.22002634178463235,-0.1055569128210086
0.22202658125540173,-0.08305729965161987
0.2240268207261711,-0.060722411848689824
0.2260270601969405,-0.04139390063713248
0.22802729966770988,-0.024368975892763788
0.23002753913847926,-0.01144433808440802
0.23202777860924864,-0.0020063870170567836
0.23402801808001802,0.0018445692056085058
0.2360282575507874,0.0011509763350480576
0.2380284970215568,-0.0010485118914542752
0.24002873649232617,-0.002853399463483961
0.24202897596309556,-0.0016101471618102461
0.24402921543386497,0.003014758906044429
0.24602945490463435,0.010003545135616151
0.24802969437540373,0.0199992430848461
0.2500299338461731,0.02935817301164488
0.2520301733169425,0.03723579540495546
0.2540304127877119,0.040695683655059274
0.25603065225848126,0.040829271648033516
0.25803089172925064,0.035873227952296236
0.26003113120002,0.028311845620068003
0.2620313706707894,0.01795362464632086
0.2640316101415588,0.00497405487430782
0.2660318496123282,-0.008079823443575222
0.26803208908309756,-0.023323564617209663
0.27003232855386694,-0.037604737221216974
0.2720325680246363,-0.052600683561018366
0.2740328074954057,-0.06593492529705848
0.2760330469661751,-0.07730076429064335
0.27803328643694447,-0.08558002452501152
0.28003352590771385,-0.08794546910719166
0.2820337653784833,-0.08693712635298792
0.2840340048492527,-0.07950538465035781
0.28603424432002206,-0.0680169946371434
0.28803448379079144,-0.052223718456487066
0.2900347232615608,-0.033196933758176714
0.2920349627323302,-0.012234689068668468
0.2940352022030996,0.00824978501798086
0.29603544167386897,0.029847507876895447
0.29803568114463835,0.048269975245206306
0.30003592061540774,0.06445156448523533
0.3020361600861771,0.07662904494025352
0.3040363995569465,0.08439150004870465
0.3060366390277159,0.08769693921524574
0.30803687849848527,0.08685513917472774
0.31003711796925465,0.08247948389468868
0.31203735744002403,0.07641345567677545
0.3140375969107934,0.06863969474933064
0.3160378363815628,0.060180982945368555
0.3180380758523322,0.05200299668544295
0.32003831532310156,0.04492818849486689
0.32203855479387095,0.03956876403361473
0.32403879426464033,0.03528458018419349
0.3260390337354097,0.03516912690437721
0.3280392732061791,0.03706384610017952
0.3300395126769485,0.041598178610049226
0.33203975214771786,0.048250199194721496
0.3340399916184873,0.05642074481452433
0.3360402310892567,0.06551274735084683
0.33804047056002606,0.07200715329439066
0.34004071003079545,0.07752736675154134
0.34204094950156483,0.08188551705851191
0.3440411889723342,0.08410587710922485
0.3460414284431036,0.08542322831712346
0.348041667913873,0.08625662671816094
0.35004190738464236,0.08816160060344023
0.35204214685541174,0.09076604376373257
0.3540423863261811,0.09669673815045512
0.3560426257969505,0.10450438305044776
0.3580428652677199,0.11459513706928055
0.3600431047384893,0.12817598929627672
0.36204334420925866,0.14421984414945857
0.36404358368002804,0.1614541813114972
0.3660438231507974,0.18037474635894468
0.3680440626215668,0.20028318400593695
0.3700443020923362,0.22034510076527403
0.37204454156310557,0.23866297963126848
0.37404478103387495,0.2553568703867869
0.37604502050464433,0.2696449915501666
0.3780452599754137,0.28091637795165014
0.3800454994461831,0.2877884868129718
0.3820457389169525,0.2911441527146725
0.3840459783877219,0.2901443069158205
0.3860462178584913,0.28721524490819617
0.3880464573292607,0.28101170116841745
0.39004669680003007,0.2723593264651605
0.39204693627079945,0.2621821311634218
0.39404717574156883,0.2504218664845791
0.3960474152123382,0.23795703035906968
0.3980476546831076,0.22652914087748316
0.400047894153877,0.21768312951489446
0.40204813362464636,0.21072725319770927
0.40404837309541575,0.20671595857764402
0.40604861256618513,0.2064568525939122
0.4080488520369545,0.20654056874338225
0.4100490915077239,0.20639010293937063
0.4120493309784933,0.2053243439131439
0.41404957044926266,0.20262921985822135
0.41604980992003204,0.1976292486422375
0.4180500493908014,0.18975236903379822
0.4200502888615708,0.18058172812053486
0.4220505283323402,0.1698895183421971
0.4240507678031096,0.15764984831437598
0.42605100727387896,0.1440298011754104
0.42805124674464834,0.12836006282606333
0.4300514862154177,0.11208856648315962
0.4320517256861871,0.09672229412943248
0.4340519651569565,0.082763533067446
0.4360522046277259,0.06964739518789796
0.4380524440984953,0.05968722171653769
0.4400526835692647,0.051033640838845595
0.4420529230400341,0.044651610322534466
0.44405316251080346,0.0403179100329272
0.44605340198157284,0.035639440243409565
0.4480536414523422,0.033090544024276705
0.4500538809231116,0.030065620456498614
0.452054120393881,0.02694172483055624
0.45405435986465037,0.023144818096185727
0.45605459933541975,0.018212931977294178
0.45805483880618914,0.012849795564610402
0.4600550782769585,0.003963393602325002
0.4620553177477279,-0.006314598181182711
0.4640555572184973,-0.01963067802592552
0.46605579668926667,-0.03343276890552095
0.46805603616003605,-0.04801284235773069
0.47005627563080543,-0.06156500538018568
0.4720565151015748,-0.0742536305801684
0.4740567545723442,-0.08628513437509595
0.4760569940431136,-0.09497666028980262
0.47805723351388296,-0.10081523488162457
0.48005747298465234,-0.10450189791746597
0.4820577124554217,-0.10397677018495548
0.4840579519261911,-0.10042286444952185
0.4860581913969605,-0.0922484839227582
0.48805843086772993,-0.08205008667506924
0.4900586703384993,-0.07055932446203399
0.4920589098092687,-0.05757941320097365
0.4940591492800381,-0.043916921996338475
0.49605938875080746,-0.03231539306888294
0.49805962822157684,-0.02139690179821324
0.5000598676923462,-0.012616772503347857
0.5020601071631156,-0.00823527788040668
0.504060346633885,-0.006308412497027457
0.5060605861046543,-0.007697920828146149
0.5080608255754238,-0.012098870479435352
0.5100610650461931,-0.017081379599842007
0.5120613045169625,-0.023141798990655223
0.514061543987732,-0.028757839554425332
0.5160617834585013,-0.0334418982792745
0.5180620229292707,-0.03678718610312808
0.52006226240004,-0.039502154366354084
0.5220625018708095,-0.04343005425015729
0.5240627413415788,-0.04755210272663248
0.5260629808123483,-0.05197449710871942
0.5280632202831176,-0.05690123486380186
0.530063459753887,-0.06059617983960784
0.5320636992246564,-0.062338919515701835
0.5340639386954258,-0.0633795697660513
0.5360641781661951,-0.06489774467096562
0.5380644176369646,-0.0659704169728351
0.5400646571077339,-0.06855240457199478
0.5420648965785033,-0.07147183574958255
0.5440651360492726,-0.07544131624532888
0.5460653755200421,-0.07808381539696584
0.5480656149908114,-0.08097068402030014
0.5500658544615808,-0.08266788037418554
0.5520660939323502,-0.08278555121515696
0.5540663334031196,-0.08202568928153303
0.5560665728738889,-0.07922271132502919
0.5580668123446584,-0.07437246042194469
0.5600670518154277,-0.06664626605625026
0.5620672912861971,-0.05738818050872195
0.5640675307569666,-0.047095199172226994
0.5660677702277359,-0.03538199341959993
0.5680680096985053,-0.024933262152996197
0.5700682491692747,-0.015448081329754948
0.5720684886400441,-0.007581469725821
0.5740687281108134,-0.0008887082661608785
0.5760689675815829,0.0022222834289072294
0.5780692070523522,0.0035259727809319177
0.5800694465231216,0.0009983174118719756
0.582069685993891,-0.0041818337842451595
0.5840699254646604,-0.010649102110582937
0.5860701649354297,-0.019884044109783033
0.5880704044061992,-0.03025851440312943
0.5900706438769685,-0.042089501377841704
0.5920708833477379,-0.05369624054625807
0.5940711228185073,-0.06545516442227178
0.5960713622892767,-0.07684754775018697
0.598071601760046,-0.08649551891725851
0.6000718412308155,-0.09418334634046283
0.6020720807015848,-0.09786244334056853
0.6040723201723542,-0.0986402074810176
0.6060725596431236,-0.09675444809297107
0.608072799113893,-0.09253659057488707
0.6100730385846623,-0.0873679314902458
0.6120732780554318,-0.08263384460492615
0.6140735175262011,-0.07868094288185226
0.6160737569969705,-0.07578177747308511
0.61807399646774,-0.07311074937097503
0.6200742359385093,-0.06973362018225276
0.6220744754092787,-0.06661147306026549
0.6240747148800481,-0.06361835648524607
0.6260749543508175,-0.05957031438621025
0.6280751938215868,-0.055262228942379164
0.6300754332923563,-0.0515080139764784
0.6320756727631256,-0.048179293276800206
0.634075912233895,-0.04523782479882679
0.6360761517046644,-0.040757578080047575
0.6380763911754338,-0.03593347296694727
0.6400766306462031,-0.03107522906433993
0.6420768701169726,-0.024586406484099658
0.6440771095877419,-0.01893036745720858
0.6460773490585113,-0.013586379638857714
0.6480775885292807,-0.011000254774875599
0.6500778280000501,-0.009534641882700787
0.6520780674708194,-0.012424288868452312
0.6540783069415889,-0.017741221922047207
0.6560785464123582,-0.026373897768830902
0.6580787858831276,-0.03802304540774975
0.660079025353897,-0.0512152643802972
0.6620792648246664,-0.06433365317583936
0.6640795042954357,-0.07766298859982389
0.6660797437662052,-0.09044544756576436
0.6680799832369746,-0.0999417187956399
0.6700802227077439,-0.10749171743746772
0.6720804621785134,-0.11256906351406513
0.6740807016492827,-0.11382402883552549
0.6760809411200521,-0.1121107483619516
0.6780811805908215,-0.10849602539893641
0.6800814200615909,-0.10424888263189983
0.6820816595323602,-0.09781193804200561
0.6840818990031297,-0.09175751812026417
0.686082138473899,-0.08473296954076223
0.6880823779446684,-0.07640073063099352
0.6900826174154377,-0.06837925608481737
0.6920828568862072,-0.058190790395033616
0.6940830963569765,-0.049221260227794404
0.696083335827746,-0.03969627170748839
0.6980835752985153,-0.032675483040198995
0.7000838147692847,-0.02706565088421594
0.702084054240054,-0.02365062486780213
0.7040842937108235,-0.022134702043523205
0.7060845331815928,-0.022194252061529786
0.7080847726523622,-0.021531550359237647
0.7100850121231316,-0.020924424379398676
0.712085251593901,-0.018265675293569938
0.7140854910646703,-0.014587261948048623
0.7160857305354398,-0.01006583113346518
0.7180859700062092,-0.006008192714825155
0.7200862094769785,-0.0018175659140219468
0.722086448947748,5.636719478951615e-05
0.7240866884185173,-0.00182139134111937
0.7260869278892867,-0.00680528756032207
0.7280871673600561,-0.015105952549748202
0.7300874068308255,-0.026736963658490088
0.7320876463015948,-0.04047835573081485
0.7340878857723643,-0.05486217174666056
0.7360881252431336,-0.0691832864568231
0.738088364713903,-0.08253625236863582
0.7400886041846724,-0.09187624587463163
0.7420888436554418,-0.09809960041233298
0.7440890831262111,-0.10013717162429736
0.7460893225969806,-0.09805212792569568
0.7480895620677499,-0.09113288781760247
0.7500898015385193,-0.0809719489372308
0.7520900410092887,-0.0665223026755139
0.7540902804800581,-0.050124939433986083
0.7560905199508274,-0.029503471861791523
0.7580907594215969,-0.0057249094014230366
0.7600909988923662,0.019871175445330368
0.7620912383631356,0.04876975176679321
0.764091477833905,0.07839569115163303
0.7660917173046744,0.10623738948228416
0.7680919567754438,0.12896758584384813
0.7700921962462132,0.1455502901731335
0.7720924357169826,0.1523237821770967
0.7740926751877519,0.14905169658034492
0.7760929146585214,0.13793708885536932
0.7780931541292907,0.11859781961218359
0.7800933936000601,0.09300528014983948
0.7820936330708295,0.06539204913932006
0.7840938725415989,0.03513716581472877
0.7860941120123682,0.005640010389936184
0.7880943514831377,-0.021804950615639883
0.790094590953907,-0.04812021996628617
0.7920948304246764,-0.0705329441856929
0.7940950698954458,-0.08962932293129301
0.7960953093662152,-0.10437011431078803
0.7980955488369845,-0.11606549047864276
0.800095788307754,-0.1243116674775462
0.8020960277785233,-0.12989576870200958
0.8040962672492927,-0.13267887277118787
0.8060965067200621,-0.13446977543472627
0.8080967461908315,-0.13490337165566663
0.8100969856616008,-0.13533755832144959
0.8120972251323703,-0.1357811212962818
0.8140974646031396,-0.13686229405444106
0.816097704073909,-0.13984378607483242
0.8180979435446784,-0.14368542288000435
0.8200981830154478,-0.146150549940508
0.8220984224862172,-0.14594751284568014
0.8240986619569866,-0.1398933234938751
0.826098901427756,-0.12608350095897042
0.8280991408985253,-0.10405039310608605
0.8300993803692948,-0.07389227295885419
0.8320996198400641,-0.03935724248284725
0.8340998593108335,-0.0018693810497658649
0.8361000987816029,0.035510601410751054
0.8381003382523723,0.06919209895357353
0.8401005777231416,0.09922425867401785
0.842100817193911,0.12351776457645859
0.8441010566646804,0.14010232459332597
0.8461012961354498,0.1473989907798488
0.8481015356062191,0.14348368740223072
0.8501017750769886,0.12531758228837528
0.8521020145477579,0.08992137446680475
0.8541022540185274,0.038474154161529016
0.8561024934892967,-0.029677008338443188
0.8581027329600661,-0.11010358072159551
0.8601029724308354,-0.19847707561118508
0.8621032119016049,-0.2878361948962106
0.8641034513723742,-0.37092246147209984
0.8661036908431436,-0.438560526008531
0.868103930313913,-0.48505443388208114
0.8701041697846824,-0.5035684841850874
0.8721044092554519,-0.4904612163671491
0.8741046487262212,-0.4425436144853174
0.8761048881969906,-0.3572376906497881
0.8781051276677599,-0.23561884305997258
0.8801053671385294,-0.07833422939708982
0.8821056066092987,0.10860084946202389
0.8841058460800681,0.3161166944989455
0.8861060855508375,0.5314920680919789
0.8881063250216069,0.7398174938563422
0.8901065644923762,0.9224848256149641
0.8921068039631457,1.067666078831216
0.894107043433915,1.1637446261542952
0.8961072829046844,1.2006649496827153
0.8981075223754538,1.172173004951637
0.9001077618462232,1.0749274393349353
0.9021080013169925,0.9084717748637157
0.904108240787762,0.681068420231163
0.9061084802585313,0.407406146326162
0.9081087197293007,0.11120256427651581
0.9101089592000701,-0.18126862770660468
0.9121091986708395,-0.44168998845796525
0.9141094381416088,-0.6512135903357539
0.9161096776123783,-0.7969365537410871
0.9181099170831476,-0.8773033436308812
0.920110156553917,-0.9014052403344744
0.9221103960246865,-0.8781556393045695
0.9241106354954558,-0.8193297048648518
0.9261108749662252,-0.7364675847105063
0.9281111144369946,-0.6356510067120238
0.930111353907764,-0.5251727625754351
0.9321115933785333,-0.4101265554861613
0.9341118328493028,-0.2959503236886256
0.9361120723200721,-0.18595902456854074
0.9381123117908415,-0.08490278625338807
0.9401125512616109,0.005416632450558538
0.9421127907323803,0.08144368545425414
0.9441130302031496,0.14006142265967217
0.9461132696739191,0.18066766861908645
0.9481135091446884,0.19813388313780256
0.9501137486154578,0.1936550165764495
0.9521139880862272,0.16650711278179323
0.9541142275569966,0.11973618773747724
0.9561144670277659,0.05880650175189837
0.9581147064985354,-0.007761573060797153
0.9601149459693047,-0.07273440712802098
0.9621151854400741,-0.12946199888902762
0.9641154249108435,-0.17410732680756846
0.9661156643816129,-0.2047933490925982
0.9681159038523822,-0.21866055786617059
0.9701161433231517,-0.21983599417665606
0.972116382793921,-0.21132219631972973
0.9741166222646904,-0.19482103947018525
0.9761168617354599,-0.17351229924730097
0.9781171012062292,-0.15180966567789497
0.9801173406769986,-0.12911766629151716
0.982117580147768,-0.10761154685597542
0.9841178196185374,-0.08705881697396395
0.9861180590893067,-0.06769627448055918
0.9881182985600762,-0.05017038469166497
0.9901185380308455,-0.035542493768675035
0.9921187775016149,-0.026354107975910118
0.9941190169723843,-0.020741946619546973
0.9961192564431537,-0.020588164308914702
0.998119495913923,-0.02268839772091214
1.0001197353846925,-0.023919324977619887
