time,amplitude
0.000000000000000000e+00,2.000000000000000042e-03
2.000119731800766541e-03,3.000000000000000062e-03
4.000239463601533083e-03,7.000000000000000146e-03
6.000359195402299624e-03,1.299999999999999940e-02
8.000478927203066165e-03,1.899999999999999953e-02
1.000059865900383357e-02,2.500000000000000139e-02
1.200071839080459925e-02,2.800000000000000058e-02
1.400083812260536492e-02,2.699999999999999969e-02
1.600095785440613233e-02,2.100000000000000130e-02
1.800107758620689974e-02,1.299999999999999940e-02
2.000119731800766715e-02,2.000000000000000042e-03
2.200131704980843109e-02,-8.000000000000000167e-03
2.400143678160919850e-02,-1.799999999999999864e-02
2.600155651340996590e-02,-2.599999999999999881e-02
2.800167624521072984e-02,-3.300000000000000155e-02
3.000179597701149725e-02,-4.000000000000000083e-02
3.200191570881226466e-02,-4.800000000000000100e-02
3.400203544061303207e-02,-5.600000000000000117e-02
3.600215517241379948e-02,-6.500000000000000222e-02
3.800227490421456689e-02,-7.299999999999999545e-02
4.000239463601533429e-02,-7.799999999999999989e-02
4.200251436781609476e-02,-8.100000000000000255e-02
4.400263409961686217e-02,-8.100000000000000255e-02
4.600275383141762958e-02,-7.900000000000000078e-02
4.800287356321839699e-02,-7.599999999999999811e-02
5.000299329501916440e-02,-7.499999999999999722e-02
5.200311302681993181e-02,-7.499999999999999722e-02
5.400323275862069922e-02,-7.799999999999999989e-02
5.600335249042145969e-02,-8.200000000000000344e-02
5.800347222222222709e-02,-8.699999999999999400e-02
6.000359195402299450e-02,-9.099999999999999756e-02
6.200371168582376191e-02,-9.400000000000000022e-02
6.400383141762452932e-02,-9.400000000000000022e-02
6.600395114942529673e-02,-9.199999999999999845e-02
6.800407088122606414e-02,-8.799999999999999489e-02
7.000419061302683155e-02,-8.500000000000000611e-02
7.200431034482759896e-02,-8.400000000000000522e-02
7.400443007662836636e-02,-8.500000000000000611e-02
7.600454980842913377e-02,-8.799999999999999489e-02
7.800466954022990118e-02,-9.099999999999999756e-02
8.000478927203066859e-02,-9.400000000000000022e-02
8.200490900383142212e-02,-9.500000000000000111e-02
8.400502873563218953e-02,-9.299999999999999933e-02
8.600514846743295694e-02,-8.899999999999999578e-02
8.800526819923372435e-02,-8.300000000000000433e-02
9.000538793103449176e-02,-7.799999999999999989e-02
9.200550766283525916e-02,-7.499999999999999722e-02
9.400562739463602657e-02,-7.499999999999999722e-02
9.600574712643679398e-02,-8.000000000000000167e-02
9.800586685823756139e-02,-8.899999999999999578e-02
1.000059865900383288e-01,-1.010000000000000064e-01
1.020061063218390962e-01,-1.130000000000000032e-01
1.040062260536398636e-01,-1.229999999999999982e-01
1.060063457854406310e-01,-1.300000000000000044e-01
1.080064655172413984e-01,-1.300000000000000044e-01
1.100065852490421658e-01,-1.219999999999999973e-01
1.120067049808429194e-01,-1.019999999999999934e-01
1.140068247126436868e-01,-6.900000000000000577e-02
1.160069444444444542e-01,-1.899999999999999953e-02
1.180070641762452216e-01,4.800000000000000100e-02
1.200071839080459890e-01,1.330000000000000071e-01
1.220073036398467564e-01,2.320000000000000118e-01
1.240074233716475238e-01,3.400000000000000244e-01
1.260075431034483051e-01,4.480000000000000093e-01
1.280076628352490586e-01,5.470000000000000417e-01
1.300077825670498122e-01,6.270000000000000018e-01
1.320079022988505935e-01,6.830000000000000515e-01
1.340080220306513470e-01,7.079999999999999627e-01
1.360081417624521283e-01,6.979999999999999538e-01
1.380082614942528818e-01,6.490000000000000213e-01
1.400083812260536631e-01,5.580000000000000515e-01
1.420085009578544166e-01,4.289999999999999925e-01
1.440086206896551979e-01,2.710000000000000187e-01
1.460087404214559514e-01,9.700000000000000289e-02
1.480088601532567327e-01,-7.399999999999999634e-02
1.500089798850574863e-01,-2.220000000000000029e-01
1.520090996168582675e-01,-3.340000000000000191e-01
1.540092193486590211e-01,-4.040000000000000258e-01
1.560093390804598024e-01,-4.339999999999999969e-01
1.580094588122605559e-01,-4.349999999999999978e-01
1.600095785440613372e-01,-4.159999999999999809e-01
1.620096982758620907e-01,-3.890000000000000124e-01
1.640098180076628442e-01,-3.609999999999999876e-01
1.660099377394636255e-01,-3.350000000000000200e-01
1.680100574712643791e-01,-3.130000000000000004e-01
1.700101772030651603e-01,-2.939999999999999836e-01
1.720102969348659139e-01,-2.770000000000000240e-01
1.740104166666666952e-01,-2.610000000000000098e-01
1.760105363984674487e-01,-2.439999999999999947e-01
1.780106561302682300e-01,-2.240000000000000047e-01
1.800107758620689835e-01,-2.020000000000000129e-01
1.820108955938697648e-01,-1.759999999999999898e-01
1.840110153256705183e-01,-1.489999999999999936e-01
1.860111350574712996e-01,-1.219999999999999973e-01
1.880112547892720531e-01,-9.900000000000000466e-02
1.900113745210728344e-01,-8.300000000000000433e-02
1.920114942528735880e-01,-7.499999999999999722e-02
1.940116139846743415e-01,-7.499999999999999722e-02
1.960117337164751228e-01,-7.900000000000000078e-02
1.980118534482758763e-01,-8.400000000000000522e-02
2.000119731800766576e-01,-8.799999999999999489e-02
2.020120929118774111e-01,-8.799999999999999489e-02
2.040122126436781924e-01,-8.400000000000000522e-02
2.060123323754789459e-01,-7.599999999999999811e-02
2.080124521072797272e-01,-6.600000000000000311e-02
2.100125718390804808e-01,-5.700000000000000205e-02
2.120126915708812620e-01,-5.099999999999999672e-02
2.140128113026820156e-01,-4.700000000000000011e-02
2.160129310344827969e-01,-4.700000000000000011e-02
2.180130507662835504e-01,-4.900000000000000189e-02
2.200131704980843317e-01,-5.099999999999999672e-02
2.220132902298850852e-01,-5.199999999999999761e-02
2.240134099616858387e-01,-5.000000000000000278e-02
2.260135296934866200e-01,-4.700000000000000011e-02
2.280136494252873736e-01,-4.200000000000000261e-02
2.300137691570881548e-01,-3.699999999999999817e-02
2.320138888888889084e-01,-3.200000000000000067e-02
2.340140086206896897e-01,-2.999999999999999889e-02
2.360141283524904432e-01,-3.099999999999999978e-02
2.380142480842912245e-01,-3.300000000000000155e-02
2.400143678160919780e-01,-3.500000000000000333e-02
2.420144875478927593e-01,-3.500000000000000333e-02
2.440146072796935128e-01,-3.300000000000000155e-02
2.460147270114942941e-01,-2.999999999999999889e-02
2.480148467432950476e-01,-2.500000000000000139e-02
2.500149664750958012e-01,-2.100000000000000130e-02
2.520150862068966102e-01,-1.799999999999999864e-02
2.540152059386973638e-01,-1.799999999999999864e-02
2.560153256704981173e-01,-1.899999999999999953e-02
2.580154454022988708e-01,-2.199999999999999872e-02
2.600155651340996243e-01,-2.400000000000000050e-02
2.620156848659004334e-01,-2.500000000000000139e-02
2.640158045977011869e-01,-2.500000000000000139e-02
2.660159243295019404e-01,-2.199999999999999872e-02
2.680160440613026940e-01,-1.899999999999999953e-02
2.700161637931035030e-01,-1.400000000000000029e-02
2.720162835249042566e-01,-1.000000000000000021e-02
2.740164032567050101e-01,-6.000000000000000125e-03
2.760165229885057636e-01,-3.000000000000000062e-03
2.780166427203065727e-01,-1.000000000000000021e-03
2.800167624521073262e-01,2.000000000000000042e-03
2.820168821839080797e-01,3.000000000000000062e-03
2.840170019157088332e-01,5.000000000000000104e-03
2.860171216475096423e-01,6.000000000000000125e-03
2.880172413793103958e-01,7.000000000000000146e-03
2.900173611111111494e-01,8.000000000000000167e-03
2.920174808429119029e-01,8.999999999999999320e-03
2.940176005747126564e-01,8.999999999999999320e-03
2.960177203065134655e-01,1.099999999999999936e-02
2.980178400383142190e-01,1.200000000000000025e-02
3.000179597701149725e-01,1.400000000000000029e-02
3.020180795019157260e-01,1.600000000000000033e-02
3.040181992337165351e-01,1.799999999999999864e-02
3.060183189655172886e-01,2.000000000000000042e-02
3.080184386973180422e-01,2.199999999999999872e-02
3.100185584291187957e-01,2.400000000000000050e-02
3.120186781609196047e-01,2.699999999999999969e-02
3.140187978927203583e-01,2.999999999999999889e-02
3.160189176245211118e-01,3.300000000000000155e-02
3.180190373563218653e-01,3.599999999999999728e-02
3.200191570881226744e-01,3.899999999999999994e-02
3.220192768199234279e-01,4.200000000000000261e-02
3.240193965517241814e-01,4.399999999999999745e-02
3.260195162835249350e-01,4.800000000000000100e-02
3.280196360153256885e-01,5.199999999999999761e-02
3.300197557471264975e-01,5.700000000000000205e-02
3.320198754789272511e-01,6.300000000000000044e-02
3.340199952107280046e-01,7.000000000000000666e-02
3.360201149425287581e-01,7.799999999999999989e-02
3.380202346743295672e-01,8.400000000000000522e-02
3.400203544061303207e-01,8.999999999999999667e-02
3.420204741379310742e-01,9.600000000000000200e-02
3.440205938697318278e-01,1.010000000000000064e-01
3.460207136015326368e-01,1.059999999999999970e-01
3.480208333333333903e-01,1.110000000000000014e-01
3.500209530651341439e-01,1.170000000000000068e-01
3.520210727969348974e-01,1.229999999999999982e-01
3.540211925287356509e-01,1.310000000000000053e-01
3.560213122605364600e-01,1.390000000000000124e-01
3.580214319923372135e-01,1.469999999999999918e-01
3.600215517241379670e-01,1.559999999999999998e-01
3.620216714559387206e-01,1.650000000000000078e-01
3.640217911877395296e-01,1.729999999999999871e-01
3.660219109195402831e-01,1.809999999999999942e-01
3.680220306513410367e-01,1.890000000000000013e-01
3.700221503831417902e-01,1.970000000000000084e-01
3.720222701149425992e-01,2.039999999999999869e-01
3.740223898467433528e-01,2.109999999999999931e-01
3.760225095785441063e-01,2.179999999999999993e-01
3.780226293103448598e-01,2.250000000000000056e-01
3.800227490421456689e-01,2.310000000000000109e-01
3.820228687739464224e-01,2.369999999999999885e-01
3.840229885057471759e-01,2.419999999999999929e-01
3.860231082375479295e-01,2.479999999999999982e-01
3.880232279693486830e-01,2.530000000000000027e-01
3.900233477011494920e-01,2.570000000000000062e-01
3.920234674329502456e-01,2.600000000000000089e-01
3.940235871647509991e-01,2.610000000000000098e-01
3.960237068965517526e-01,2.600000000000000089e-01
3.980238266283525617e-01,2.580000000000000071e-01
4.000239463601533152e-01,2.560000000000000053e-01
4.020240660919540687e-01,2.530000000000000027e-01
4.040241858237548223e-01,2.500000000000000000e-01
4.060243055555556313e-01,2.479999999999999982e-01
4.080244252873563848e-01,2.439999999999999947e-01
4.100245450191571384e-01,2.379999999999999893e-01
4.120246647509578919e-01,2.300000000000000100e-01
4.140247844827587009e-01,2.200000000000000011e-01
4.160249042145594545e-01,2.079999999999999905e-01
4.180250239463602080e-01,1.940000000000000058e-01
4.200251436781609615e-01,1.799999999999999933e-01
4.220252634099617151e-01,1.660000000000000087e-01
4.240253831417625241e-01,1.519999999999999962e-01
4.260255028735632776e-01,1.380000000000000115e-01
4.280256226053640312e-01,1.229999999999999982e-01
4.300257423371647847e-01,1.079999999999999988e-01
4.320258620689655937e-01,9.400000000000000022e-02
4.340259818007663473e-01,8.100000000000000255e-02
4.360261015325671008e-01,6.800000000000000488e-02
4.380262212643678543e-01,5.700000000000000205e-02
4.400263409961686634e-01,4.599999999999999922e-02
4.420264607279694169e-01,3.599999999999999728e-02
4.440265804597701704e-01,2.699999999999999969e-02
4.460267001915709240e-01,1.700000000000000122e-02
4.480268199233716775e-01,8.999999999999999320e-03
4.500269396551724865e-01,1.000000000000000021e-03
4.520270593869732401e-01,-6.000000000000000125e-03
4.540271791187739936e-01,-1.200000000000000025e-02
4.560272988505747471e-01,-1.700000000000000122e-02
4.580274185823755562e-01,-2.000000000000000042e-02
4.600275383141763097e-01,-2.400000000000000050e-02
4.620276580459770632e-01,-2.699999999999999969e-02
4.640277777777778168e-01,-3.099999999999999978e-02
4.660278975095786258e-01,-3.400000000000000244e-02
4.680280172413793793e-01,-3.699999999999999817e-02
4.700281369731801329e-01,-3.899999999999999994e-02
4.720282567049808864e-01,-4.100000000000000172e-02
4.740283764367816954e-01,-4.399999999999999745e-02
4.760284961685824490e-01,-4.599999999999999922e-02
4.780286159003832025e-01,-4.800000000000000100e-02
4.800287356321839560e-01,-5.099999999999999672e-02
4.820288553639847096e-01,-5.299999999999999850e-02
4.840289750957855186e-01,-5.500000000000000028e-02
4.860290948275862721e-01,-5.500000000000000028e-02
4.880292145593870257e-01,-5.500000000000000028e-02
4.900293342911877792e-01,-5.500000000000000028e-02
4.920294540229885882e-01,-5.399999999999999939e-02
4.940295737547893418e-01,-5.199999999999999761e-02
4.960296934865900953e-01,-5.099999999999999672e-02
4.980298132183908488e-01,-4.900000000000000189e-02
5.000299329501916024e-01,-4.700000000000000011e-02
5.020300526819924114e-01,-4.700000000000000011e-02
5.040301724137932204e-01,-4.700000000000000011e-02
5.060302921455939185e-01,-4.800000000000000100e-02
5.080304118773947275e-01,-5.000000000000000278e-02
5.100305316091954255e-01,-5.099999999999999672e-02
5.120306513409962346e-01,-5.199999999999999761e-02
5.140307710727970436e-01,-5.199999999999999761e-02
5.160308908045977416e-01,-5.099999999999999672e-02
5.180310105363985507e-01,-4.900000000000000189e-02
5.200311302681992487e-01,-4.700000000000000011e-02
5.220312500000000577e-01,-4.700000000000000011e-02
5.240313697318008668e-01,-4.800000000000000100e-02
5.260314894636015648e-01,-5.000000000000000278e-02
5.280316091954023738e-01,-5.299999999999999850e-02
5.300317289272031829e-01,-5.500000000000000028e-02
5.320318486590038809e-01,-5.500000000000000028e-02
5.340319683908046899e-01,-5.399999999999999939e-02
5.360320881226053880e-01,-5.299999999999999850e-02
5.380322078544061970e-01,-5.099999999999999672e-02
5.400323275862070060e-01,-5.000000000000000278e-02
5.420324473180077041e-01,-4.900000000000000189e-02
5.440325670498085131e-01,-4.900000000000000189e-02
5.460326867816092111e-01,-4.800000000000000100e-02
5.480328065134100202e-01,-4.800000000000000100e-02
5.500329262452108292e-01,-4.800000000000000100e-02
5.520330459770115272e-01,-4.800000000000000100e-02
5.540331657088123363e-01,-4.900000000000000189e-02
5.560332854406131453e-01,-5.000000000000000278e-02
5.580334051724138433e-01,-5.099999999999999672e-02
5.600335249042146524e-01,-5.099999999999999672e-02
5.620336446360153504e-01,-5.099999999999999672e-02
5.640337643678161594e-01,-5.099999999999999672e-02
5.660338840996169685e-01,-5.000000000000000278e-02
5.680340038314176665e-01,-5.000000000000000278e-02
5.700341235632184755e-01,-5.000000000000000278e-02
5.720342432950192846e-01,-5.000000000000000278e-02
5.740343630268199826e-01,-4.900000000000000189e-02
5.760344827586207916e-01,-4.900000000000000189e-02
5.780346024904214897e-01,-4.800000000000000100e-02
5.800347222222222987e-01,-4.800000000000000100e-02
5.820348419540231077e-01,-4.800000000000000100e-02
5.840349616858238058e-01,-4.700000000000000011e-02
5.860350814176246148e-01,-4.700000000000000011e-02
5.880352011494253128e-01,-4.700000000000000011e-02
5.900353208812261219e-01,-4.800000000000000100e-02
5.920354406130269309e-01,-4.900000000000000189e-02
5.940355603448276289e-01,-5.099999999999999672e-02
5.960356800766284380e-01,-5.399999999999999939e-02
5.980357998084292470e-01,-5.700000000000000205e-02
6.000359195402299450e-01,-5.999999999999999778e-02
6.020360392720307541e-01,-6.099999999999999867e-02
6.040361590038314521e-01,-6.099999999999999867e-02
6.060362787356322611e-01,-5.999999999999999778e-02
6.080363984674330702e-01,-5.800000000000000294e-02
6.100365181992337682e-01,-5.600000000000000117e-02
6.120366379310345772e-01,-5.500000000000000028e-02
6.140367576628352753e-01,-5.500000000000000028e-02
6.160368773946360843e-01,-5.600000000000000117e-02
6.180369971264368933e-01,-5.700000000000000205e-02
6.200371168582375914e-01,-5.700000000000000205e-02
6.220372365900384004e-01,-5.700000000000000205e-02
6.240373563218392094e-01,-5.700000000000000205e-02
6.260374760536399075e-01,-5.600000000000000117e-02
6.280375957854407165e-01,-5.500000000000000028e-02
6.300377155172414145e-01,-5.500000000000000028e-02
6.320378352490422236e-01,-5.600000000000000117e-02
6.340379549808430326e-01,-5.800000000000000294e-02
6.360380747126437306e-01,-5.899999999999999689e-02
6.380381944444445397e-01,-5.999999999999999778e-02
6.400383141762453487e-01,-6.099999999999999867e-02
6.420384339080460467e-01,-5.999999999999999778e-02
6.440385536398468558e-01,-5.899999999999999689e-02
6.460386733716475538e-01,-5.700000000000000205e-02
6.480387931034483628e-01,-5.600000000000000117e-02
6.500389128352491719e-01,-5.399999999999999939e-02
6.520390325670498699e-01,-5.399999999999999939e-02
6.540391522988506789e-01,-5.399999999999999939e-02
6.560392720306513770e-01,-5.500000000000000028e-02
6.580393917624521860e-01,-5.700000000000000205e-02
6.600395114942529950e-01,-5.899999999999999689e-02
6.620396312260536931e-01,-5.999999999999999778e-02
6.640397509578545021e-01,-6.099999999999999867e-02
6.660398706896553112e-01,-6.199999999999999956e-02
6.680399904214560092e-01,-6.099999999999999867e-02
6.700401101532568182e-01,-5.999999999999999778e-02
6.720402298850575162e-01,-5.899999999999999689e-02
6.740403496168583253e-01,-5.700000000000000205e-02
6.760404693486591343e-01,-5.500000000000000028e-02
6.780405890804598323e-01,-5.399999999999999939e-02
6.800407088122606414e-01,-5.500000000000000028e-02
6.820408285440613394e-01,-5.600000000000000117e-02
6.840409482758621484e-01,-5.899999999999999689e-02
6.860410680076629575e-01,-6.199999999999999956e-02
6.880411877394636555e-01,-6.400000000000000133e-02
6.900413074712644645e-01,-6.600000000000000311e-02
6.920414272030652736e-01,-6.500000000000000222e-02
6.940415469348659716e-01,-6.400000000000000133e-02
6.960416666666667806e-01,-6.099999999999999867e-02
6.980417863984674787e-01,-5.899999999999999689e-02
7.000419061302682877e-01,-5.700000000000000205e-02
7.020420258620690968e-01,-5.600000000000000117e-02
7.040421455938697948e-01,-5.600000000000000117e-02
7.060422653256706038e-01,-5.700000000000000205e-02
7.080423850574713018e-01,-5.700000000000000205e-02
7.100425047892721109e-01,-5.700000000000000205e-02
7.120426245210729199e-01,-5.500000000000000028e-02
7.140427442528736179e-01,-5.199999999999999761e-02
7.160428639846744270e-01,-4.800000000000000100e-02
7.180429837164752360e-01,-4.399999999999999745e-02
7.200431034482759340e-01,-3.899999999999999994e-02
7.220432231800767431e-01,-3.500000000000000333e-02
7.240433429118774411e-01,-3.300000000000000155e-02
7.260434626436782501e-01,-3.200000000000000067e-02
7.280435823754790592e-01,-3.200000000000000067e-02
7.300437021072797572e-01,-3.300000000000000155e-02
7.320438218390805662e-01,-3.400000000000000244e-02
7.340439415708813753e-01,-3.400000000000000244e-02
7.360440613026820733e-01,-3.300000000000000155e-02
7.380441810344828824e-01,-3.099999999999999978e-02
7.400443007662835804e-01,-2.599999999999999881e-02
7.420444204980843894e-01,-2.000000000000000042e-02
7.440445402298851985e-01,-1.299999999999999940e-02
7.460446599616858965e-01,-6.000000000000000125e-03
7.480447796934867055e-01,1.000000000000000021e-03
7.500448994252874035e-01,6.000000000000000125e-03
7.520450191570882126e-01,1.000000000000000021e-02
7.540451388888890216e-01,1.099999999999999936e-02
7.560452586206897196e-01,1.200000000000000025e-02
7.580453783524905287e-01,1.299999999999999940e-02
7.600454980842913377e-01,1.400000000000000029e-02
7.620456178160920357e-01,1.799999999999999864e-02
7.640457375478928448e-01,2.400000000000000050e-02
7.660458572796935428e-01,3.099999999999999978e-02
7.680459770114943518e-01,3.699999999999999817e-02
7.700460967432951609e-01,4.200000000000000261e-02
7.720462164750958589e-01,4.299999999999999656e-02
7.740463362068966680e-01,4.000000000000000083e-02
7.760464559386973660e-01,3.500000000000000333e-02
7.780465756704981750e-01,2.699999999999999969e-02
7.800466954022989841e-01,1.700000000000000122e-02
7.820468151340996821e-01,8.000000000000000167e-03
7.840469348659004911e-01,-2.000000000000000042e-03
7.860470545977013002e-01,-1.099999999999999936e-02
7.880471743295019982e-01,-1.899999999999999953e-02
7.900472940613028072e-01,-2.800000000000000058e-02
7.920474137931035052e-01,-3.599999999999999728e-02
7.940475335249043143e-01,-4.399999999999999745e-02
7.960476532567051233e-01,-5.099999999999999672e-02
7.980477729885058213e-01,-5.800000000000000294e-02
8.000478927203066304e-01,-6.400000000000000133e-02
8.020480124521073284e-01,-6.900000000000000577e-02
8.040481321839081374e-01,-7.199999999999999456e-02
8.060482519157089465e-01,-7.399999999999999634e-02
8.080483716475096445e-01,-7.399999999999999634e-02
8.100484913793104536e-01,-7.299999999999999545e-02
8.120486111111112626e-01,-7.099999999999999367e-02
8.140487308429119606e-01,-6.900000000000000577e-02
8.160488505747127697e-01,-6.900000000000000577e-02
8.180489703065134677e-01,-7.099999999999999367e-02
8.200490900383142767e-01,-7.399999999999999634e-02
8.220492097701150858e-01,-7.799999999999999989e-02
8.240493295019157838e-01,-8.100000000000000255e-02
8.260494492337165928e-01,-8.200000000000000344e-02
8.280495689655174019e-01,-8.100000000000000255e-02
8.300496886973180999e-01,-7.799999999999999989e-02
8.320498084291189089e-01,-7.599999999999999811e-02
8.340499281609196069e-01,-7.499999999999999722e-02
8.360500478927204160e-01,-7.599999999999999811e-02
8.380501676245212250e-01,-8.000000000000000167e-02
8.400502873563219230e-01,-8.400000000000000522e-02
8.420504070881227321e-01,-8.699999999999999400e-02
8.440505268199234301e-01,-8.799999999999999489e-02
8.460506465517242392e-01,-8.599999999999999312e-02
8.480507662835250482e-01,-8.100000000000000255e-02
8.500508860153257462e-01,-7.499999999999999722e-02
8.520510057471265553e-01,-7.099999999999999367e-02
8.540511254789273643e-01,-6.900000000000000577e-02
8.560512452107280623e-01,-7.199999999999999456e-02
8.580513649425288714e-01,-7.900000000000000078e-02
8.600514846743295694e-01,-8.999999999999999667e-02
8.620516044061303784e-01,-1.029999999999999943e-01
8.640517241379311875e-01,-1.160000000000000059e-01
8.660518438697318855e-01,-1.250000000000000000e-01
8.680519636015326945e-01,-1.290000000000000036e-01
8.700520833333333925e-01,-1.250000000000000000e-01
8.720522030651342016e-01,-1.120000000000000023e-01
8.740523227969350106e-01,-8.799999999999999489e-02
8.760524425287357086e-01,-5.000000000000000278e-02
8.780525622605365177e-01,3.000000000000000062e-03
8.800526819923373267e-01,7.399999999999999634e-02
8.820528017241380248e-01,1.620000000000000051e-01
8.840529214559388338e-01,2.640000000000000124e-01
8.860530411877395318e-01,3.739999999999999991e-01
8.880531609195403409e-01,4.839999999999999858e-01
8.900532806513411499e-01,5.819999999999999618e-01
8.920534003831418479e-01,6.620000000000000329e-01
8.940535201149426570e-01,7.169999999999999707e-01
8.960536398467433550e-01,7.399999999999999911e-01
8.980537595785441640e-01,7.259999999999999787e-01
9.000538793103449731e-01,6.710000000000000409e-01
9.020539990421456711e-01,5.719999999999999529e-01
9.040541187739464801e-01,4.329999999999999960e-01
9.060542385057472892e-01,2.630000000000000115e-01
9.080543582375479872e-01,7.900000000000000078e-02
9.100544779693487962e-01,-1.000000000000000056e-01
9.120545977011494942e-01,-2.530000000000000027e-01
9.140547174329503033e-01,-3.679999999999999938e-01
9.160548371647511123e-01,-4.380000000000000004e-01
9.180549568965518104e-01,-4.660000000000000253e-01
9.200550766283526194e-01,-4.640000000000000235e-01
9.220551963601534284e-01,-4.420000000000000040e-01
9.240553160919541265e-01,-4.109999999999999765e-01
9.260554358237549355e-01,-3.800000000000000044e-01
9.280555555555556335e-01,-3.509999999999999787e-01
9.300556752873564426e-01,-3.270000000000000129e-01
9.320557950191572516e-01,-3.069999999999999951e-01
9.340559147509579496e-01,-2.899999999999999800e-01
9.360560344827587587e-01,-2.730000000000000204e-01
9.380561542145594567e-01,-2.550000000000000044e-01
9.400562739463602657e-01,-2.330000000000000127e-01
9.420563936781610748e-01,-2.069999999999999896e-01
9.440565134099617728e-01,-1.779999999999999916e-01
9.460566331417625818e-01,-1.459999999999999909e-01
9.480567528735633909e-01,-1.170000000000000068e-01
9.500568726053640889e-01,-9.199999999999999845e-02
9.520569923371648979e-01,-7.499999999999999722e-02
9.540571120689655960e-01,-6.700000000000000400e-02
9.560572318007664050e-01,-6.700000000000000400e-02
9.580573515325672140e-01,-7.099999999999999367e-02
9.600574712643679121e-01,-7.599999999999999811e-02
9.620575909961687211e-01,-7.900000000000000078e-02
9.640577107279694191e-01,-7.900000000000000078e-02
9.660578304597702282e-01,-7.599999999999999811e-02
9.680579501915710372e-01,-6.800000000000000488e-02
9.700580699233717352e-01,-5.899999999999999689e-02
9.720581896551725443e-01,-5.099999999999999672e-02
9.740583093869733533e-01,-4.399999999999999745e-02
9.760584291187740513e-01,-3.899999999999999994e-02
9.780585488505748604e-01,-3.799999999999999906e-02
9.800586685823755584e-01,-3.799999999999999906e-02
9.820587883141763674e-01,-3.899999999999999994e-02
9.840589080459771765e-01,-3.899999999999999994e-02
9.860590277777778745e-01,-3.699999999999999817e-02
9.880591475095786835e-01,-3.300000000000000155e-02
9.900592672413794926e-01,-2.800000000000000058e-02
9.920593869731801906e-01,-2.500000000000000139e-02
9.940595067049809996e-01,-2.299999999999999961e-02
9.960596264367816977e-01,-2.500000000000000139e-02
9.980597461685825067e-01,-2.900000000000000147e-02
1.000059865900383205e+00,-3.300000000000000155e-02
1.002059985632184125e+00,-3.599999999999999728e-02
1.004060105363984823e+00,-3.699999999999999817e-02
1.006060225095785521e+00,-3.400000000000000244e-02
1.008060344827586441e+00,-2.900000000000000147e-02
1.010060464559387139e+00,-2.299999999999999961e-02
1.012060584291187837e+00,-1.799999999999999864e-02
1.014060704022988535e+00,-1.400000000000000029e-02
1.016060823754789455e+00,-1.299999999999999940e-02
1.018060943486590153e+00,-1.299999999999999940e-02
1.020061063218390851e+00,-1.499999999999999944e-02
1.022061182950191771e+00,-1.600000000000000033e-02
1.024061302681992469e+00,-1.600000000000000033e-02
1.026061422413793167e+00,-1.400000000000000029e-02
1.028061542145594087e+00,-1.099999999999999936e-02
1.030061661877394785e+00,-7.000000000000000146e-03
1.032061781609195483e+00,-3.000000000000000062e-03
1.034061901340996403e+00,-0.000000000000000000e+00
1.036062021072797101e+00,1.000000000000000021e-03
1.038062140804597799e+00,2.000000000000000042e-03
1.040062260536398497e+00,1.000000000000000021e-03
1.042062380268199417e+00,0.000000000000000000e+00
1.044062500000000115e+00,0.000000000000000000e+00
1.046062619731800813e+00,1.000000000000000021e-03
1.048062739463601734e+00,2.000000000000000042e-03
1.050062859195402432e+00,5.000000000000000104e-03
1.052062978927203130e+00,8.999999999999999320e-03
1.054063098659004050e+00,1.200000000000000025e-02
1.056063218390804748e+00,1.600000000000000033e-02
1.058063338122605446e+00,1.899999999999999953e-02
1.060063457854406366e+00,2.199999999999999872e-02
1.062063577586207064e+00,2.400000000000000050e-02
1.064063697318007762e+00,2.599999999999999881e-02
1.066063817049808460e+00,2.800000000000000058e-02
1.068063936781609380e+00,3.099999999999999978e-02
1.070064056513410078e+00,3.400000000000000244e-02
1.072064176245210776e+00,3.699999999999999817e-02
1.074064295977011696e+00,4.100000000000000172e-02
1.076064415708812394e+00,4.499999999999999833e-02
1.078064535440613092e+00,4.900000000000000189e-02
1.080064655172414012e+00,5.299999999999999850e-02
1.082064774904214710e+00,5.700000000000000205e-02
1.084064894636015408e+00,5.999999999999999778e-02
1.086065014367816328e+00,6.199999999999999956e-02
1.088065134099617026e+00,6.300000000000000044e-02
1.090065253831417724e+00,6.400000000000000133e-02
1.092065373563218422e+00,6.600000000000000311e-02
1.094065493295019342e+00,7.000000000000000666e-02
1.096065613026820040e+00,7.499999999999999722e-02
1.098065732758620738e+00,8.200000000000000344e-02
1.100065852490421658e+00,8.899999999999999578e-02
1.102065972222222356e+00,9.700000000000000289e-02
1.104066091954023054e+00,1.039999999999999952e-01
1.106066211685823975e+00,1.110000000000000014e-01
1.108066331417624673e+00,1.189999999999999947e-01
1.110066451149425371e+00,1.280000000000000027e-01
1.112066570881226291e+00,1.360000000000000098e-01
1.114066690613026989e+00,1.449999999999999900e-01
1.116066810344827687e+00,1.529999999999999971e-01
1.118066930076628607e+00,1.600000000000000033e-01
1.120067049808429305e+00,1.660000000000000087e-01
1.122067169540230003e+00,1.710000000000000131e-01
1.124067289272030701e+00,1.759999999999999898e-01
1.126067409003831621e+00,1.819999999999999951e-01
1.128067528735632319e+00,1.880000000000000004e-01
1.130067648467433017e+00,1.940000000000000058e-01
1.132067768199233937e+00,2.010000000000000120e-01
1.134067887931034635e+00,2.079999999999999905e-01
1.136068007662835333e+00,2.149999999999999967e-01
1.138068127394636253e+00,2.220000000000000029e-01
1.140068247126436951e+00,2.280000000000000082e-01
1.142068366858237649e+00,2.349999999999999867e-01
1.144068486590038569e+00,2.409999999999999920e-01
1.146068606321839267e+00,2.469999999999999973e-01
1.148068726053639965e+00,2.530000000000000027e-01
1.150068845785440663e+00,2.580000000000000071e-01
1.152068965517241583e+00,2.620000000000000107e-01
1.154069085249042281e+00,2.670000000000000151e-01
1.156069204980842979e+00,2.710000000000000187e-01
1.158069324712643899e+00,2.740000000000000213e-01
1.160069444444444597e+00,2.770000000000000240e-01
1.162069564176245295e+00,2.780000000000000249e-01
1.164069683908046215e+00,2.770000000000000240e-01
1.166069803639846914e+00,2.740000000000000213e-01
1.168069923371647612e+00,2.680000000000000160e-01
1.170070043103448532e+00,2.600000000000000089e-01
1.172070162835249230e+00,2.489999999999999991e-01
1.174070282567049928e+00,2.379999999999999893e-01
1.176070402298850626e+00,2.260000000000000064e-01
1.178070522030651546e+00,2.139999999999999958e-01
1.180070641762452244e+00,2.030000000000000138e-01
1.182070761494252942e+00,1.920000000000000040e-01
1.184070881226053862e+00,1.809999999999999942e-01
1.186071000957854560e+00,1.690000000000000113e-01
1.188071120689655258e+00,1.570000000000000007e-01
1.190071240421456178e+00,1.439999999999999891e-01
1.192071360153256876e+00,1.300000000000000044e-01
1.194071479885057574e+00,1.150000000000000050e-01
1.196071599616858494e+00,1.000000000000000056e-01
1.198071719348659192e+00,8.500000000000000611e-02
1.200071839080459890e+00,7.099999999999999367e-02
1.202071958812260588e+00,5.899999999999999689e-02
1.204072078544061508e+00,4.800000000000000100e-02
1.206072198275862206e+00,3.899999999999999994e-02
1.208072318007662904e+00,2.999999999999999889e-02
1.210072437739463824e+00,2.199999999999999872e-02
1.212072557471264522e+00,1.400000000000000029e-02
1.214072677203065220e+00,6.000000000000000125e-03
1.216072796934866140e+00,-2.000000000000000042e-03
1.218072916666666838e+00,-8.999999999999999320e-03
1.220073036398467536e+00,-1.600000000000000033e-02
1.222073156130268456e+00,-2.199999999999999872e-02
1.224073275862069154e+00,-2.800000000000000058e-02
1.226073395593869853e+00,-3.200000000000000067e-02
1.228073515325670551e+00,-3.599999999999999728e-02
1.230073635057471471e+00,-3.899999999999999994e-02
1.232073754789272169e+00,-4.100000000000000172e-02
1.234073874521072867e+00,-4.299999999999999656e-02
1.236073994252873787e+00,-4.299999999999999656e-02
1.238074113984674485e+00,-4.399999999999999745e-02
1.240074233716475183e+00,-4.499999999999999833e-02
1.242074353448276103e+00,-4.599999999999999922e-02
1.244074473180076801e+00,-4.800000000000000100e-02
1.246074592911877499e+00,-5.000000000000000278e-02
1.248074712643678419e+00,-5.099999999999999672e-02
1.250074832375479117e+00,-5.099999999999999672e-02
1.252074952107279815e+00,-5.000000000000000278e-02
1.254075071839080513e+00,-4.900000000000000189e-02
1.256075191570881433e+00,-4.800000000000000100e-02
1.258075311302682131e+00,-4.800000000000000100e-02
1.260075431034482829e+00,-4.900000000000000189e-02
1.262075550766283749e+00,-5.000000000000000278e-02
1.264075670498084447e+00,-5.099999999999999672e-02
1.266075790229885145e+00,-5.299999999999999850e-02
1.268075909961686065e+00,-5.500000000000000028e-02
1.270076029693486763e+00,-5.600000000000000117e-02
1.272076149425287461e+00,-5.600000000000000117e-02
1.274076269157088381e+00,-5.600000000000000117e-02
1.276076388888889079e+00,-5.500000000000000028e-02
1.278076508620689777e+00,-5.299999999999999850e-02
1.280076628352490697e+00,-5.099999999999999672e-02
1.282076748084291395e+00,-5.000000000000000278e-02
1.284076867816092093e+00,-5.000000000000000278e-02
1.286076987547892791e+00,-5.000000000000000278e-02
1.288077107279693712e+00,-5.099999999999999672e-02
1.290077227011494410e+00,-5.199999999999999761e-02
1.292077346743295108e+00,-5.299999999999999850e-02
1.294077466475096028e+00,-5.299999999999999850e-02
1.296077586206896726e+00,-5.399999999999999939e-02
1.298077705938697424e+00,-5.500000000000000028e-02
1.300077825670498344e+00,-5.600000000000000117e-02
1.302077945402299042e+00,-5.600000000000000117e-02
1.304078065134099740e+00,-5.700000000000000205e-02
1.306078184865900660e+00,-5.600000000000000117e-02
1.308078304597701358e+00,-5.500000000000000028e-02
1.310078424329502056e+00,-5.399999999999999939e-02
1.312078544061302754e+00,-5.199999999999999761e-02
1.314078663793103674e+00,-5.199999999999999761e-02
1.316078783524904372e+00,-5.199999999999999761e-02
1.318078903256705070e+00,-5.299999999999999850e-02
1.320079022988505990e+00,-5.399999999999999939e-02
1.322079142720306688e+00,-5.500000000000000028e-02
1.324079262452107386e+00,-5.600000000000000117e-02
1.326079382183908306e+00,-5.600000000000000117e-02
1.328079501915709004e+00,-5.600000000000000117e-02
1.330079621647509702e+00,-5.500000000000000028e-02
1.332079741379310622e+00,-5.500000000000000028e-02
1.334079861111111320e+00,-5.600000000000000117e-02
1.336079980842912018e+00,-5.600000000000000117e-02
1.338080100574712716e+00,-5.700000000000000205e-02
1.340080220306513636e+00,-5.700000000000000205e-02
1.342080340038314334e+00,-5.600000000000000117e-02
1.344080459770115032e+00,-5.500000000000000028e-02
1.346080579501915953e+00,-5.399999999999999939e-02
1.348080699233716651e+00,-5.299999999999999850e-02
1.350080818965517349e+00,-5.299999999999999850e-02
1.352080938697318269e+00,-5.199999999999999761e-02
1.354081058429118967e+00,-5.199999999999999761e-02
1.356081178160919665e+00,-5.199999999999999761e-02
1.358081297892720585e+00,-5.299999999999999850e-02
1.360081417624521283e+00,-5.299999999999999850e-02
1.362081537356321981e+00,-5.399999999999999939e-02
1.364081657088122679e+00,-5.500000000000000028e-02
1.366081776819923599e+00,-5.600000000000000117e-02
1.368081896551724297e+00,-5.700000000000000205e-02
1.370082016283524995e+00,-5.700000000000000205e-02
1.372082136015325915e+00,-5.800000000000000294e-02
1.374082255747126613e+00,-5.800000000000000294e-02
1.376082375478927311e+00,-5.700000000000000205e-02
1.378082495210728231e+00,-5.500000000000000028e-02
1.380082614942528929e+00,-5.299999999999999850e-02
1.382082734674329627e+00,-5.099999999999999672e-02
1.384082854406130547e+00,-4.800000000000000100e-02
1.386082974137931245e+00,-4.700000000000000011e-02
1.388083093869731943e+00,-4.700000000000000011e-02
1.390083213601532641e+00,-4.800000000000000100e-02
1.392083333333333561e+00,-5.099999999999999672e-02
1.394083453065134259e+00,-5.399999999999999939e-02
1.396083572796934957e+00,-5.800000000000000294e-02
1.398083692528735877e+00,-5.999999999999999778e-02
1.400083812260536575e+00,-6.099999999999999867e-02
1.402083931992337273e+00,-6.199999999999999956e-02
1.404084051724138194e+00,-6.099999999999999867e-02
1.406084171455938892e+00,-6.099999999999999867e-02
1.408084291187739590e+00,-5.999999999999999778e-02
1.410084410919540510e+00,-5.999999999999999778e-02
1.412084530651341208e+00,-5.899999999999999689e-02
1.414084650383141906e+00,-5.800000000000000294e-02
1.416084770114942604e+00,-5.700000000000000205e-02
1.418084889846743524e+00,-5.600000000000000117e-02
1.420085009578544222e+00,-5.500000000000000028e-02
1.422085129310344920e+00,-5.500000000000000028e-02
1.424085249042145840e+00,-5.399999999999999939e-02
1.426085368773946538e+00,-5.399999999999999939e-02
1.428085488505747236e+00,-5.399999999999999939e-02
1.430085608237548156e+00,-5.399999999999999939e-02
1.432085727969348854e+00,-5.399999999999999939e-02
1.434085847701149552e+00,-5.399999999999999939e-02
1.436085967432950472e+00,-5.399999999999999939e-02
1.438086087164751170e+00,-5.500000000000000028e-02
1.440086206896551868e+00,-5.500000000000000028e-02
1.442086326628352566e+00,-5.600000000000000117e-02
1.444086446360153486e+00,-5.600000000000000117e-02
1.446086566091954184e+00,-5.600000000000000117e-02
1.448086685823754882e+00,-5.500000000000000028e-02
1.450086805555555802e+00,-5.399999999999999939e-02
1.452086925287356500e+00,-5.299999999999999850e-02
1.454087045019157198e+00,-5.099999999999999672e-02
1.456087164750958118e+00,-4.900000000000000189e-02
1.458087284482758816e+00,-4.700000000000000011e-02
1.460087404214559514e+00,-4.599999999999999922e-02
1.462087523946360434e+00,-4.700000000000000011e-02
1.464087643678161132e+00,-4.800000000000000100e-02
1.466087763409961831e+00,-5.099999999999999672e-02
1.468087883141762751e+00,-5.299999999999999850e-02
1.470088002873563449e+00,-5.399999999999999939e-02
1.472088122605364147e+00,-5.299999999999999850e-02
1.474088242337164845e+00,-5.000000000000000278e-02
1.476088362068965765e+00,-4.599999999999999922e-02
1.478088481800766463e+00,-4.100000000000000172e-02
1.480088601532567161e+00,-3.699999999999999817e-02
1.482088721264368081e+00,-3.300000000000000155e-02
1.484088840996168779e+00,-2.999999999999999889e-02
1.486088960727969477e+00,-2.699999999999999969e-02
1.488089080459770397e+00,-2.500000000000000139e-02
1.490089200191571095e+00,-2.299999999999999961e-02
1.492089319923371793e+00,-2.199999999999999872e-02
1.494089439655172713e+00,-2.000000000000000042e-02
1.496089559386973411e+00,-1.899999999999999953e-02
1.498089679118774109e+00,-1.899999999999999953e-02
1.500089798850574807e+00,-1.700000000000000122e-02
1.502089918582375727e+00,-1.400000000000000029e-02
1.504090038314176425e+00,-1.000000000000000021e-02
1.506090158045977123e+00,-3.000000000000000062e-03
1.508090277777778043e+00,5.000000000000000104e-03
1.510090397509578741e+00,1.299999999999999940e-02
1.512090517241379439e+00,2.100000000000000130e-02
1.514090636973180359e+00,2.599999999999999881e-02
1.516090756704981057e+00,2.800000000000000058e-02
1.518090876436781755e+00,2.900000000000000147e-02
1.520090996168582675e+00,2.800000000000000058e-02
1.522091115900383373e+00,2.800000000000000058e-02
1.524091235632184071e+00,2.900000000000000147e-02
1.526091355363984770e+00,3.200000000000000067e-02
1.528091475095785690e+00,3.599999999999999728e-02
1.530091594827586388e+00,4.000000000000000083e-02
1.532091714559387086e+00,4.399999999999999745e-02
1.534091834291188006e+00,4.599999999999999922e-02
1.536091954022988704e+00,4.499999999999999833e-02
1.538092073754789402e+00,4.299999999999999656e-02
1.540092193486590322e+00,3.899999999999999994e-02
1.542092313218391020e+00,3.300000000000000155e-02
1.544092432950191718e+00,2.500000000000000139e-02
1.546092552681992638e+00,1.499999999999999944e-02
1.548092672413793336e+00,4.000000000000000083e-03
1.550092792145594034e+00,-8.999999999999999320e-03
1.552092911877394732e+00,-2.100000000000000130e-02
1.554093031609195652e+00,-3.200000000000000067e-02
1.556093151340996350e+00,-4.200000000000000261e-02
1.558093271072797048e+00,-5.000000000000000278e-02
1.560093390804597968e+00,-5.600000000000000117e-02
1.562093510536398666e+00,-6.099999999999999867e-02
1.564093630268199364e+00,-6.500000000000000222e-02
1.566093750000000284e+00,-6.800000000000000488e-02
1.568093869731800982e+00,-6.900000000000000577e-02
1.570093989463601680e+00,-7.000000000000000666e-02
1.572094109195402600e+00,-6.900000000000000577e-02
1.574094228927203298e+00,-6.800000000000000488e-02
1.576094348659003996e+00,-6.800000000000000488e-02
1.578094468390804694e+00,-6.900000000000000577e-02
1.580094588122605614e+00,-7.299999999999999545e-02
1.582094707854406312e+00,-7.699999999999999900e-02
1.584094827586207010e+00,-8.100000000000000255e-02
1.586094947318007931e+00,-8.400000000000000522e-02
1.588095067049808629e+00,-8.400000000000000522e-02
1.590095186781609327e+00,-8.300000000000000433e-02
1.592095306513410247e+00,-7.900000000000000078e-02
1.594095426245210945e+00,-7.499999999999999722e-02
1.596095545977011643e+00,-7.299999999999999545e-02
1.598095665708812563e+00,-7.199999999999999456e-02
1.600095785440613261e+00,-7.399999999999999634e-02
1.602095905172413959e+00,-7.799999999999999989e-02
1.604096024904214657e+00,-8.300000000000000433e-02
1.606096144636015577e+00,-8.699999999999999400e-02
1.608096264367816275e+00,-8.899999999999999578e-02
1.610096384099616973e+00,-8.799999999999999489e-02
1.612096503831417893e+00,-8.400000000000000522e-02
1.614096623563218591e+00,-7.799999999999999989e-02
1.616096743295019289e+00,-7.199999999999999456e-02
1.618096863026820209e+00,-6.900000000000000577e-02
1.620096982758620907e+00,-6.900000000000000577e-02
1.622097102490421605e+00,-7.499999999999999722e-02
1.624097222222222525e+00,-8.400000000000000522e-02
1.626097341954023223e+00,-9.600000000000000200e-02
1.628097461685823921e+00,-1.089999999999999997e-01
1.630097581417624841e+00,-1.199999999999999956e-01
1.632097701149425539e+00,-1.270000000000000018e-01
1.634097820881226237e+00,-1.270000000000000018e-01
1.636097940613026935e+00,-1.199999999999999956e-01
1.638098060344827855e+00,-1.019999999999999934e-01
1.640098180076628553e+00,-7.299999999999999545e-02
1.642098299808429251e+00,-2.900000000000000147e-02
1.644098419540230172e+00,3.200000000000000067e-02
1.646098539272030870e+00,1.100000000000000006e-01
1.648098659003831568e+00,2.030000000000000138e-01
1.650098778735632488e+00,3.069999999999999951e-01
1.652098898467433186e+00,4.149999999999999800e-01
1.654099018199233884e+00,5.180000000000000160e-01
1.656099137931034804e+00,6.069999999999999840e-01
1.658099257662835502e+00,6.750000000000000444e-01
1.660099377394636200e+00,7.119999999999999662e-01
1.662099497126436898e+00,7.119999999999999662e-01
1.664099616858237818e+00,6.710000000000000409e-01
1.666099736590038516e+00,5.849999999999999645e-01
1.668099856321839214e+00,4.560000000000000164e-01
1.670099976053640134e+00,2.939999999999999836e-01
1.672100095785440832e+00,1.130000000000000032e-01
1.674100215517241530e+00,-6.800000000000000488e-02
1.676100335249042450e+00,-2.270000000000000073e-01
1.678100454980843148e+00,-3.509999999999999787e-01
1.680100574712643846e+00,-4.309999999999999942e-01
1.682100694444444766e+00,-4.670000000000000262e-01
1.684100814176245464e+00,-4.680000000000000271e-01
1.686100933908046162e+00,-4.460000000000000075e-01
1.688101053639846860e+00,-4.129999999999999782e-01
1.690101173371647780e+00,-3.780000000000000027e-01
1.692101293103448478e+00,-3.469999999999999751e-01
1.694101412835249176e+00,-3.230000000000000093e-01
1.696101532567050096e+00,-3.059999999999999942e-01
1.698101652298850794e+00,-2.919999999999999818e-01
1.700101772030651492e+00,-2.810000000000000275e-01
1.702101891762452412e+00,-2.690000000000000169e-01
1.704102011494253111e+00,-2.540000000000000036e-01
1.706102131226053809e+00,-2.340000000000000135e-01
1.708102250957854729e+00,-2.079999999999999905e-01
1.710102370689655427e+00,-1.769999999999999907e-01
1.712102490421456125e+00,-1.449999999999999900e-01
1.714102610153256823e+00,-1.150000000000000050e-01
1.716102729885057743e+00,-8.999999999999999667e-02
1.718102849616858441e+00,-7.299999999999999545e-02
1.720102969348659139e+00,-6.500000000000000222e-02
1.722103089080460059e+00,-6.500000000000000222e-02
1.724103208812260757e+00,-6.800000000000000488e-02
1.726103328544061455e+00,-7.199999999999999456e-02
1.728103448275862375e+00,-7.299999999999999545e-02
1.730103568007663073e+00,-7.000000000000000666e-02
1.732103687739463771e+00,-6.500000000000000222e-02
1.734103807471264691e+00,-5.700000000000000205e-02
1.736103927203065389e+00,-5.000000000000000278e-02
1.738104046934866087e+00,-4.499999999999999833e-02
1.740104166666666785e+00,-4.399999999999999745e-02
1.742104286398467705e+00,-4.399999999999999745e-02
1.744104406130268403e+00,-4.599999999999999922e-02
1.746104525862069101e+00,-4.700000000000000011e-02
1.748104645593870021e+00,-4.599999999999999922e-02
1.750104765325670719e+00,-4.299999999999999656e-02
1.752104885057471417e+00,-3.799999999999999906e-02
1.754105004789272337e+00,-3.300000000000000155e-02
1.756105124521073035e+00,-2.800000000000000058e-02
1.758105244252873733e+00,-2.400000000000000050e-02
1.760105363984674653e+00,-2.199999999999999872e-02
1.762105483716475351e+00,-2.199999999999999872e-02
1.764105603448276050e+00,-2.400000000000000050e-02
1.766105723180076748e+00,-2.599999999999999881e-02
1.768105842911877668e+00,-2.699999999999999969e-02
1.770105962643678366e+00,-2.699999999999999969e-02
1.772106082375479064e+00,-2.500000000000000139e-02
1.774106202107279984e+00,-2.199999999999999872e-02
1.776106321839080682e+00,-2.000000000000000042e-02
1.778106441570881380e+00,-1.700000000000000122e-02
1.780106561302682300e+00,-1.600000000000000033e-02
1.782106681034482998e+00,-1.499999999999999944e-02
1.784106800766283696e+00,-1.499999999999999944e-02
1.786106920498084616e+00,-1.600000000000000033e-02
1.788107040229885314e+00,-1.499999999999999944e-02
1.790107159961686012e+00,-1.400000000000000029e-02
1.792107279693486710e+00,-1.099999999999999936e-02
1.794107399425287630e+00,-8.000000000000000167e-03
1.796107519157088328e+00,-4.000000000000000083e-03
1.798107638888889026e+00,-0.000000000000000000e+00
1.800107758620689946e+00,2.000000000000000042e-03
1.802107878352490644e+00,4.000000000000000083e-03
1.804107998084291342e+00,5.000000000000000104e-03
1.806108117816092262e+00,6.000000000000000125e-03
1.808108237547892960e+00,6.000000000000000125e-03
1.810108357279693658e+00,7.000000000000000146e-03
1.812108477011494578e+00,8.999999999999999320e-03
1.814108596743295276e+00,1.000000000000000021e-02
1.816108716475095974e+00,1.200000000000000025e-02
1.818108836206896894e+00,1.400000000000000029e-02
1.820108955938697592e+00,1.600000000000000033e-02
1.822109075670498290e+00,1.799999999999999864e-02
1.824109195402298988e+00,2.000000000000000042e-02
1.826109315134099909e+00,2.299999999999999961e-02
1.828109434865900607e+00,2.699999999999999969e-02
1.830109554597701305e+00,3.099999999999999978e-02
1.832109674329502225e+00,3.500000000000000333e-02
1.834109794061302923e+00,3.799999999999999906e-02
1.836109913793103621e+00,4.100000000000000172e-02
1.838110033524904541e+00,4.299999999999999656e-02
1.840110153256705239e+00,4.399999999999999745e-02
1.842110272988505937e+00,4.499999999999999833e-02
1.844110392720306857e+00,4.599999999999999922e-02
1.846110512452107555e+00,4.800000000000000100e-02
1.848110632183908253e+00,5.099999999999999672e-02
1.850110751915708951e+00,5.399999999999999939e-02
1.852110871647509871e+00,5.800000000000000294e-02
1.854110991379310569e+00,6.400000000000000133e-02
1.856111111111111267e+00,7.000000000000000666e-02
1.858111230842912187e+00,7.799999999999999989e-02
1.860111350574712885e+00,8.500000000000000611e-02
1.862111470306513583e+00,9.199999999999999845e-02
1.864111590038314503e+00,9.800000000000000377e-02
1.866111709770115201e+00,1.029999999999999943e-01
1.868111829501915899e+00,1.079999999999999988e-01
1.870111949233716819e+00,1.110000000000000014e-01
1.872112068965517517e+00,1.150000000000000050e-01
1.874112188697318215e+00,1.199999999999999956e-01
1.876112308429118913e+00,1.250000000000000000e-01
1.878112428160919833e+00,1.310000000000000053e-01
1.880112547892720531e+00,1.380000000000000115e-01
1.882112667624521229e+00,1.459999999999999909e-01
1.884112787356322150e+00,1.539999999999999980e-01
1.886112907088122848e+00,1.630000000000000060e-01
1.888113026819923546e+00,1.710000000000000131e-01
1.890113146551724466e+00,1.789999999999999925e-01
1.892113266283525164e+00,1.869999999999999996e-01
1.894113386015325862e+00,1.950000000000000067e-01
1.896113505747126782e+00,2.039999999999999869e-01
1.898113625478927480e+00,2.119999999999999940e-01
1.900113745210728178e+00,2.200000000000000011e-01
1.902113864942528876e+00,2.270000000000000073e-01
1.904113984674329796e+00,2.340000000000000135e-01
1.906114104406130494e+00,2.389999999999999902e-01
1.908114224137931192e+00,2.439999999999999947e-01
1.910114343869732112e+00,2.479999999999999982e-01
1.912114463601532810e+00,2.520000000000000018e-01
1.914114583333333508e+00,2.560000000000000053e-01
1.916114703065134428e+00,2.600000000000000089e-01
1.918114822796935126e+00,2.640000000000000124e-01
1.920114942528735824e+00,2.680000000000000160e-01
1.922115062260536744e+00,2.710000000000000187e-01
1.924115181992337442e+00,2.740000000000000213e-01
1.926115301724138140e+00,2.760000000000000231e-01
1.928115421455938838e+00,2.770000000000000240e-01
1.930115541187739758e+00,2.770000000000000240e-01
1.932115660919540456e+00,2.740000000000000213e-01
1.934115780651341154e+00,2.680000000000000160e-01
1.936115900383142074e+00,2.610000000000000098e-01
1.938116020114942772e+00,2.520000000000000018e-01
1.940116139846743470e+00,2.409999999999999920e-01
1.942116259578544391e+00,2.300000000000000100e-01
1.944116379310345089e+00,2.179999999999999993e-01
1.946116499042145787e+00,2.049999999999999878e-01
1.948116618773946707e+00,1.930000000000000049e-01
1.950116738505747405e+00,1.789999999999999925e-01
1.952116858237548103e+00,1.650000000000000078e-01
1.954116977969348801e+00,1.489999999999999936e-01
1.956117097701149721e+00,1.330000000000000071e-01
1.958117217432950419e+00,1.160000000000000059e-01
1.960117337164751117e+00,1.000000000000000056e-01
1.962117456896552037e+00,8.500000000000000611e-02
1.964117576628352735e+00,7.199999999999999456e-02
1.966117696360153433e+00,5.999999999999999778e-02
1.968117816091954353e+00,4.900000000000000189e-02
1.970117935823755051e+00,3.899999999999999994e-02
1.972118055555555749e+00,2.999999999999999889e-02
1.974118175287356669e+00,2.100000000000000130e-02
1.976118295019157367e+00,1.200000000000000025e-02
1.978118414750958065e+00,4.000000000000000083e-03
1.980118534482758985e+00,-4.000000000000000083e-03
1.982118654214559683e+00,-1.200000000000000025e-02
1.984118773946360381e+00,-1.899999999999999953e-02
1.986118893678161079e+00,-2.500000000000000139e-02
1.988119013409961999e+00,-2.999999999999999889e-02
1.990119133141762697e+00,-3.400000000000000244e-02
1.992119252873563395e+00,-3.799999999999999906e-02
1.994119372605364315e+00,-4.100000000000000172e-02
1.996119492337165013e+00,-4.399999999999999745e-02
1.998119612068965711e+00,-4.599999999999999922e-02
2.000119731800766409e+00,-4.800000000000000100e-02
2.002119851532567107e+00,-5.000000000000000278e-02
2.004119971264368250e+00,-5.199999999999999761e-02
2.006120090996168948e+00,-5.399999999999999939e-02
2.008120210727969646e+00,-5.500000000000000028e-02
2.010120330459770344e+00,-5.600000000000000117e-02
2.012120450191571042e+00,-5.600000000000000117e-02
2.014120569923371740e+00,-5.600000000000000117e-02
2.016120689655172882e+00,-5.500000000000000028e-02
2.018120809386973580e+00,-5.500000000000000028e-02
2.020120929118774278e+00,-5.500000000000000028e-02
2.022121048850574976e+00,-5.600000000000000117e-02
2.024121168582375674e+00,-5.700000000000000205e-02
2.026121288314176372e+00,-5.800000000000000294e-02
2.028121408045977070e+00,-5.800000000000000294e-02
2.030121527777778212e+00,-5.899999999999999689e-02
2.032121647509578910e+00,-5.999999999999999778e-02
2.034121767241379608e+00,-6.099999999999999867e-02
2.036121886973180306e+00,-6.300000000000000044e-02
2.038122006704981004e+00,-6.500000000000000222e-02
2.040122126436781702e+00,-6.600000000000000311e-02
2.042122246168582844e+00,-6.700000000000000400e-02
2.044122365900383542e+00,-6.700000000000000400e-02
2.046122485632184240e+00,-6.600000000000000311e-02
2.048122605363984938e+00,-6.500000000000000222e-02
2.050122725095785636e+00,-6.400000000000000133e-02
2.052122844827586334e+00,-6.300000000000000044e-02
2.054122964559387032e+00,-6.199999999999999956e-02
2.056123084291188174e+00,-6.199999999999999956e-02
2.058123204022988872e+00,-6.099999999999999867e-02
2.060123323754789570e+00,-6.099999999999999867e-02
2.062123443486590268e+00,-6.199999999999999956e-02
2.064123563218390967e+00,-6.300000000000000044e-02
2.066123682950191665e+00,-6.400000000000000133e-02
2.068123802681992807e+00,-6.600000000000000311e-02
2.070123922413793505e+00,-6.800000000000000488e-02
2.072124042145594203e+00,-6.800000000000000488e-02
2.074124161877394901e+00,-6.800000000000000488e-02
2.076124281609195599e+00,-6.600000000000000311e-02
2.078124401340996297e+00,-6.400000000000000133e-02
2.080124521072796995e+00,-6.199999999999999956e-02
2.082124640804598137e+00,-6.099999999999999867e-02
2.084124760536398835e+00,-5.899999999999999689e-02
2.086124880268199533e+00,-5.800000000000000294e-02
2.088125000000000231e+00,-5.800000000000000294e-02
2.090125119731800929e+00,-5.700000000000000205e-02
2.092125239463601627e+00,-5.700000000000000205e-02
2.094125359195402769e+00,-5.700000000000000205e-02
2.096125478927203467e+00,-5.600000000000000117e-02
2.098125598659004165e+00,-5.600000000000000117e-02
2.100125718390804863e+00,-5.600000000000000117e-02
2.102125838122605561e+00,-5.500000000000000028e-02
2.104125957854406259e+00,-5.399999999999999939e-02
2.106126077586206957e+00,-5.299999999999999850e-02
2.108126197318008099e+00,-5.299999999999999850e-02
2.110126317049808797e+00,-5.299999999999999850e-02
2.112126436781609495e+00,-5.299999999999999850e-02
2.114126556513410193e+00,-5.299999999999999850e-02
2.116126676245210891e+00,-5.299999999999999850e-02
2.118126795977011589e+00,-5.199999999999999761e-02
2.120126915708812732e+00,-5.000000000000000278e-02
2.122127035440613430e+00,-4.800000000000000100e-02
2.124127155172414128e+00,-4.700000000000000011e-02
2.126127274904214826e+00,-4.599999999999999922e-02
2.128127394636015524e+00,-4.599999999999999922e-02
2.130127514367816222e+00,-4.700000000000000011e-02
2.132127634099616920e+00,-4.800000000000000100e-02
2.134127753831418062e+00,-4.900000000000000189e-02
2.136127873563218760e+00,-4.900000000000000189e-02
2.138127993295019458e+00,-4.900000000000000189e-02
2.140128113026820156e+00,-4.900000000000000189e-02
2.142128232758620854e+00,-4.900000000000000189e-02
2.144128352490421552e+00,-4.900000000000000189e-02
2.146128472222222694e+00,-4.900000000000000189e-02
2.148128591954023392e+00,-4.900000000000000189e-02
2.150128711685824090e+00,-4.900000000000000189e-02
2.152128831417624788e+00,-4.900000000000000189e-02
2.154128951149425486e+00,-5.000000000000000278e-02
2.156129070881226184e+00,-5.099999999999999672e-02
2.158129190613026882e+00,-5.299999999999999850e-02
2.160129310344828024e+00,-5.399999999999999939e-02
2.162129430076628722e+00,-5.399999999999999939e-02
2.164129549808429420e+00,-5.399999999999999939e-02
2.166129669540230118e+00,-5.299999999999999850e-02
2.168129789272030816e+00,-5.299999999999999850e-02
2.170129909003831514e+00,-5.299999999999999850e-02
2.172130028735632656e+00,-5.299999999999999850e-02
2.174130148467433354e+00,-5.399999999999999939e-02
2.176130268199234052e+00,-5.500000000000000028e-02
2.178130387931034750e+00,-5.700000000000000205e-02
2.180130507662835448e+00,-5.800000000000000294e-02
2.182130627394636146e+00,-5.800000000000000294e-02
2.184130747126436844e+00,-5.800000000000000294e-02
2.186130866858237987e+00,-5.700000000000000205e-02
2.188130986590038685e+00,-5.500000000000000028e-02
2.190131106321839383e+00,-5.399999999999999939e-02
2.192131226053640081e+00,-5.199999999999999761e-02
2.194131345785440779e+00,-5.000000000000000278e-02
2.196131465517241477e+00,-4.900000000000000189e-02
2.198131585249042619e+00,-4.700000000000000011e-02
2.200131704980843317e+00,-4.700000000000000011e-02
2.202131824712644015e+00,-4.599999999999999922e-02
2.204131944444444713e+00,-4.599999999999999922e-02
2.206132064176245411e+00,-4.499999999999999833e-02
2.208132183908046109e+00,-4.299999999999999656e-02
2.210132303639846807e+00,-4.100000000000000172e-02
2.212132423371647949e+00,-3.799999999999999906e-02
2.214132543103448647e+00,-3.500000000000000333e-02
2.216132662835249345e+00,-3.400000000000000244e-02
2.218132782567050043e+00,-3.300000000000000155e-02
2.220132902298850741e+00,-3.300000000000000155e-02
2.222133022030651439e+00,-3.400000000000000244e-02
2.224133141762452581e+00,-3.500000000000000333e-02
2.226133261494253279e+00,-3.400000000000000244e-02
2.228133381226053977e+00,-3.200000000000000067e-02
2.230133500957854675e+00,-2.800000000000000058e-02
2.232133620689655373e+00,-2.199999999999999872e-02
2.234133740421456071e+00,-1.600000000000000033e-02
2.236133860153257213e+00,-1.000000000000000021e-02
2.238133979885057911e+00,-4.000000000000000083e-03
2.240134099616858609e+00,1.000000000000000021e-03
2.242134219348659308e+00,4.000000000000000083e-03
2.244134339080460006e+00,7.000000000000000146e-03
2.246134458812260704e+00,8.999999999999999320e-03
2.248134578544061402e+00,1.200000000000000025e-02
2.250134698275862544e+00,1.499999999999999944e-02
2.252134818007663242e+00,2.000000000000000042e-02
2.254134937739463940e+00,2.599999999999999881e-02
2.256135057471264638e+00,3.200000000000000067e-02
2.258135177203065336e+00,3.799999999999999906e-02
2.260135296934866034e+00,4.100000000000000172e-02
2.262135416666667176e+00,4.200000000000000261e-02
2.264135536398467874e+00,3.899999999999999994e-02
2.266135656130268572e+00,3.300000000000000155e-02
2.268135775862069270e+00,2.400000000000000050e-02
2.270135895593869968e+00,1.400000000000000029e-02
2.272136015325670666e+00,3.000000000000000062e-03
2.274136135057471364e+00,-8.000000000000000167e-03
2.276136254789272506e+00,-1.700000000000000122e-02
2.278136374521073204e+00,-2.599999999999999881e-02
2.280136494252873902e+00,-3.200000000000000067e-02
2.282136613984674600e+00,-3.799999999999999906e-02
2.284136733716475298e+00,-4.399999999999999745e-02
2.286136853448275996e+00,-4.900000000000000189e-02
2.288136973180077138e+00,-5.500000000000000028e-02
2.290137092911877836e+00,-6.099999999999999867e-02
2.292137212643678534e+00,-6.700000000000000400e-02
2.294137332375479232e+00,-7.000000000000000666e-02
2.296137452107279930e+00,-7.199999999999999456e-02
2.298137571839080628e+00,-7.299999999999999545e-02
2.300137691570881326e+00,-7.299999999999999545e-02
2.302137811302682469e+00,-7.199999999999999456e-02
2.304137931034483167e+00,-7.199999999999999456e-02
2.306138050766283865e+00,-7.299999999999999545e-02
2.308138170498084563e+00,-7.399999999999999634e-02
2.310138290229885261e+00,-7.499999999999999722e-02
2.312138409961685959e+00,-7.499999999999999722e-02
2.314138529693487101e+00,-7.499999999999999722e-02
2.316138649425287799e+00,-7.399999999999999634e-02
2.318138769157088497e+00,-7.499999999999999722e-02
2.320138888888889195e+00,-7.599999999999999811e-02
2.322139008620689893e+00,-7.799999999999999989e-02
2.324139128352490591e+00,-8.100000000000000255e-02
2.326139248084291289e+00,-8.500000000000000611e-02
2.328139367816092431e+00,-8.699999999999999400e-02
2.330139487547893129e+00,-8.699999999999999400e-02
2.332139607279693827e+00,-8.599999999999999312e-02
2.334139727011494525e+00,-8.200000000000000344e-02
2.336139846743295223e+00,-7.799999999999999989e-02
2.338139966475095921e+00,-7.299999999999999545e-02
2.340140086206897063e+00,-6.900000000000000577e-02
2.342140205938697761e+00,-6.800000000000000488e-02
2.344140325670498459e+00,-7.099999999999999367e-02
2.346140445402299157e+00,-7.799999999999999989e-02
2.348140565134099855e+00,-8.699999999999999400e-02
2.350140684865900553e+00,-9.700000000000000289e-02
2.352140804597701251e+00,-1.079999999999999988e-01
2.354140924329502393e+00,-1.160000000000000059e-01
2.356141044061303091e+00,-1.199999999999999956e-01
2.358141163793103789e+00,-1.179999999999999938e-01
2.360141283524904487e+00,-1.100000000000000006e-01
2.362141403256705185e+00,-9.199999999999999845e-02
2.364141522988505884e+00,-6.300000000000000044e-02
2.366141642720307026e+00,-1.899999999999999953e-02
2.368141762452107724e+00,4.200000000000000261e-02
2.370141882183908422e+00,1.199999999999999956e-01
2.372142001915709120e+00,2.149999999999999967e-01
2.374142121647509818e+00,3.210000000000000075e-01
2.376142241379310516e+00,4.299999999999999933e-01
2.378142361111111214e+00,5.350000000000000311e-01
2.380142480842912356e+00,6.239999999999999991e-01
2.382142600574713054e+00,6.889999999999999458e-01
2.384142720306513752e+00,7.229999999999999760e-01
2.386142840038314450e+00,7.199999999999999734e-01
2.388142959770115148e+00,6.740000000000000435e-01
2.390143079501915846e+00,5.839999999999999636e-01
2.392143199233716988e+00,4.530000000000000138e-01
2.394143318965517686e+00,2.889999999999999791e-01
2.396143438697318384e+00,1.100000000000000006e-01
2.398143558429119082e+00,-6.500000000000000222e-02
2.400143678160919780e+00,-2.179999999999999993e-01
2.402143797892720478e+00,-3.330000000000000182e-01
2.404143917624521176e+00,-4.040000000000000258e-01
2.406144037356322318e+00,-4.349999999999999978e-01
2.408144157088123016e+00,-4.329999999999999960e-01
2.410144276819923714e+00,-4.119999999999999774e-01
2.412144396551724412e+00,-3.820000000000000062e-01
2.414144516283525110e+00,-3.519999999999999796e-01
2.416144636015325808e+00,-3.260000000000000120e-01
2.418144755747126950e+00,-3.059999999999999942e-01
2.420144875478927649e+00,-2.909999999999999809e-01
2.422144995210728347e+00,-2.790000000000000258e-01
2.424145114942529045e+00,-2.680000000000000160e-01
2.426145234674329743e+00,-2.550000000000000044e-01
2.428145354406130441e+00,-2.379999999999999893e-01
2.430145474137931139e+00,-2.159999999999999976e-01
2.432145593869732281e+00,-1.880000000000000004e-01
2.434145713601532979e+00,-1.559999999999999998e-01
2.436145833333333677e+00,-1.229999999999999982e-01
2.438145953065134375e+00,-9.400000000000000022e-02
2.440146072796935073e+00,-7.099999999999999367e-02
2.442146192528735771e+00,-5.800000000000000294e-02
2.444146312260536913e+00,-5.399999999999999939e-02
2.446146431992337611e+00,-5.600000000000000117e-02
2.448146551724138309e+00,-6.199999999999999956e-02
2.450146671455939007e+00,-6.700000000000000400e-02
2.452146791187739705e+00,-6.800000000000000488e-02
2.454146910919540403e+00,-6.500000000000000222e-02
2.456147030651341101e+00,-5.899999999999999689e-02
2.458147150383142243e+00,-5.199999999999999761e-02
2.460147270114942941e+00,-4.599999999999999922e-02
2.462147389846743639e+00,-4.200000000000000261e-02
2.464147509578544337e+00,-4.000000000000000083e-02
2.466147629310345035e+00,-4.100000000000000172e-02
2.468147749042145733e+00,-4.200000000000000261e-02
2.470147868773946875e+00,-4.200000000000000261e-02
2.472147988505747573e+00,-4.100000000000000172e-02
2.474148108237548271e+00,-3.699999999999999817e-02
2.476148227969348969e+00,-3.300000000000000155e-02
2.478148347701149667e+00,-2.699999999999999969e-02
2.480148467432950365e+00,-2.199999999999999872e-02
2.482148587164751063e+00,-1.700000000000000122e-02
2.484148706896552206e+00,-1.499999999999999944e-02
2.486148826628352904e+00,-1.499999999999999944e-02
2.488148946360153602e+00,-1.600000000000000033e-02
2.490149066091954300e+00,-1.899999999999999953e-02
2.492149185823754998e+00,-2.000000000000000042e-02
2.494149305555555696e+00,-2.000000000000000042e-02
2.496149425287356838e+00,-1.799999999999999864e-02
2.498149545019157536e+00,-1.499999999999999944e-02
2.500149664750958234e+00,-1.200000000000000025e-02
2.502149784482758932e+00,-8.999999999999999320e-03
2.504149904214559630e+00,-7.000000000000000146e-03
2.506150023946360328e+00,-7.000000000000000146e-03
2.508150143678161026e+00,-8.000000000000000167e-03
2.510150263409962168e+00,-8.999999999999999320e-03
2.512150383141762866e+00,-8.999999999999999320e-03
2.514150502873563564e+00,-8.000000000000000167e-03
2.516150622605364262e+00,-6.000000000000000125e-03
2.518150742337164960e+00,-4.000000000000000083e-03
2.520150862068965658e+00,-1.000000000000000021e-03
2.522150981800766800e+00,0.000000000000000000e+00
2.524151101532567498e+00,1.000000000000000021e-03
2.526151221264368196e+00,2.000000000000000042e-03
2.528151340996168894e+00,2.000000000000000042e-03
2.530151460727969592e+00,2.000000000000000042e-03
2.532151580459770290e+00,2.000000000000000042e-03
2.534151700191570988e+00,3.000000000000000062e-03
2.536151819923372130e+00,4.000000000000000083e-03
2.538151939655172828e+00,7.000000000000000146e-03
2.540152059386973527e+00,8.999999999999999320e-03
2.542152179118774225e+00,1.299999999999999940e-02
2.544152298850574923e+00,1.700000000000000122e-02
2.546152418582375621e+00,2.100000000000000130e-02
2.548152538314176763e+00,2.500000000000000139e-02
2.550152658045977461e+00,2.900000000000000147e-02
2.552152777777778159e+00,3.200000000000000067e-02
2.554152897509578857e+00,3.500000000000000333e-02
2.556153017241379555e+00,3.699999999999999817e-02
2.558153136973180253e+00,3.899999999999999994e-02
2.560153256704981395e+00,4.100000000000000172e-02
2.562153376436782093e+00,4.299999999999999656e-02
2.564153496168582791e+00,4.599999999999999922e-02
2.566153615900383489e+00,4.800000000000000100e-02
2.568153735632184187e+00,5.099999999999999672e-02
2.570153855363984885e+00,5.299999999999999850e-02
2.572153975095785583e+00,5.600000000000000117e-02
2.574154094827586725e+00,5.899999999999999689e-02
2.576154214559387423e+00,6.300000000000000044e-02
2.578154334291188121e+00,6.800000000000000488e-02
2.580154454022988819e+00,7.399999999999999634e-02
2.582154573754789517e+00,8.100000000000000255e-02
2.584154693486590215e+00,8.799999999999999489e-02
2.586154813218391357e+00,9.500000000000000111e-02
2.588154932950192055e+00,1.000000000000000056e-01
2.590155052681992753e+00,1.049999999999999961e-01
2.592155172413793451e+00,1.100000000000000006e-01
2.594155292145594149e+00,1.150000000000000050e-01
2.596155411877394847e+00,1.199999999999999956e-01
2.598155531609195545e+00,1.260000000000000009e-01
2.600155651340996688e+00,1.320000000000000062e-01
2.602155771072797386e+00,1.380000000000000115e-01
2.604155890804598084e+00,1.439999999999999891e-01
2.606156010536398782e+00,1.499999999999999944e-01
2.608156130268199480e+00,1.559999999999999998e-01
2.610156250000000178e+00,1.620000000000000051e-01
2.612156369731801320e+00,1.700000000000000122e-01
2.614156489463602018e+00,1.779999999999999916e-01
2.616156609195402716e+00,1.859999999999999987e-01
2.618156728927203414e+00,1.940000000000000058e-01
2.620156848659004112e+00,2.010000000000000120e-01
2.622156968390804810e+00,2.079999999999999905e-01
2.624157088122605508e+00,2.149999999999999967e-01
2.626157207854406650e+00,2.210000000000000020e-01
2.628157327586207348e+00,2.280000000000000082e-01
2.630157447318008046e+00,2.349999999999999867e-01
2.632157567049808744e+00,2.419999999999999929e-01
2.634157686781609442e+00,2.489999999999999991e-01
2.636157806513410140e+00,2.540000000000000036e-01
2.638157926245211282e+00,2.590000000000000080e-01
2.640158045977011980e+00,2.630000000000000115e-01
2.642158165708812678e+00,2.660000000000000142e-01
2.644158285440613376e+00,2.680000000000000160e-01
2.646158405172414074e+00,2.700000000000000178e-01
2.648158524904214772e+00,2.710000000000000187e-01
2.650158644636015470e+00,2.710000000000000187e-01
2.652158764367816612e+00,2.690000000000000169e-01
2.654158884099617310e+00,2.670000000000000151e-01
2.656159003831418008e+00,2.620000000000000107e-01
2.658159123563218706e+00,2.550000000000000044e-01
2.660159243295019404e+00,2.459999999999999964e-01
2.662159363026820103e+00,2.359999999999999876e-01
2.664159482758621245e+00,2.250000000000000056e-01
2.666159602490421943e+00,2.129999999999999949e-01
2.668159722222222641e+00,2.010000000000000120e-01
2.670159841954023339e+00,1.880000000000000004e-01
2.672159961685824037e+00,1.739999999999999880e-01
2.674160081417624735e+00,1.600000000000000033e-01
2.676160201149425433e+00,1.439999999999999891e-01
2.678160320881226575e+00,1.270000000000000018e-01
2.680160440613027273e+00,1.100000000000000006e-01
2.682160560344827971e+00,9.299999999999999933e-02
2.684160680076628669e+00,7.799999999999999989e-02
2.686160799808429367e+00,6.600000000000000311e-02
2.688160919540230065e+00,5.500000000000000028e-02
2.690161039272031207e+00,4.599999999999999922e-02
2.692161159003831905e+00,3.699999999999999817e-02
2.694161278735632603e+00,2.800000000000000058e-02
2.696161398467433301e+00,1.899999999999999953e-02
2.698161518199233999e+00,8.999999999999999320e-03
2.700161637931034697e+00,1.000000000000000021e-03
2.702161757662835395e+00,-7.000000000000000146e-03
2.704161877394636537e+00,-1.299999999999999940e-02
2.706161997126437235e+00,-1.799999999999999864e-02
2.708162116858237933e+00,-2.299999999999999961e-02
2.710162236590038631e+00,-2.900000000000000147e-02
2.712162356321839329e+00,-3.400000000000000244e-02
2.714162476053640027e+00,-3.899999999999999994e-02
2.716162595785441169e+00,-4.299999999999999656e-02
2.718162715517241868e+00,-4.499999999999999833e-02
2.720162835249042566e+00,-4.599999999999999922e-02
2.722162954980843264e+00,-4.599999999999999922e-02
2.724163074712643962e+00,-4.700000000000000011e-02
2.726163194444444660e+00,-4.900000000000000189e-02
2.728163314176245358e+00,-5.199999999999999761e-02
2.730163433908046500e+00,-5.500000000000000028e-02
2.732163553639847198e+00,-5.800000000000000294e-02
2.734163673371647896e+00,-5.899999999999999689e-02
2.736163793103448594e+00,-5.899999999999999689e-02
2.738163912835249292e+00,-5.800000000000000294e-02
2.740164032567049990e+00,-5.700000000000000205e-02
2.742164152298851132e+00,-5.600000000000000117e-02
2.744164272030651830e+00,-5.600000000000000117e-02
2.746164391762452528e+00,-5.700000000000000205e-02
2.748164511494253226e+00,-5.800000000000000294e-02
2.750164631226053924e+00,-5.999999999999999778e-02
2.752164750957854622e+00,-6.199999999999999956e-02
2.754164870689655320e+00,-6.400000000000000133e-02
2.756164990421456462e+00,-6.600000000000000311e-02
2.758165110153257160e+00,-6.800000000000000488e-02
2.760165229885057858e+00,-6.800000000000000488e-02
2.762165349616858556e+00,-6.900000000000000577e-02
2.764165469348659254e+00,-6.800000000000000488e-02
2.766165589080459952e+00,-6.700000000000000400e-02
2.768165708812261094e+00,-6.600000000000000311e-02
2.770165828544061792e+00,-6.400000000000000133e-02
2.772165948275862490e+00,-6.199999999999999956e-02
2.774166068007663188e+00,-5.999999999999999778e-02
2.776166187739463886e+00,-5.899999999999999689e-02
2.778166307471264584e+00,-5.800000000000000294e-02
2.780166427203065282e+00,-5.899999999999999689e-02
2.782166546934866425e+00,-5.999999999999999778e-02
2.784166666666667123e+00,-6.099999999999999867e-02
2.786166786398467821e+00,-6.199999999999999956e-02
2.788166906130268519e+00,-6.300000000000000044e-02
2.790167025862069217e+00,-6.300000000000000044e-02
2.792167145593869915e+00,-6.400000000000000133e-02
2.794167265325671057e+00,-6.500000000000000222e-02
2.796167385057471755e+00,-6.600000000000000311e-02
2.798167504789272453e+00,-6.600000000000000311e-02
2.800167624521073151e+00,-6.700000000000000400e-02
2.802167744252873849e+00,-6.600000000000000311e-02
2.804167863984674547e+00,-6.500000000000000222e-02
2.806167983716475245e+00,-6.400000000000000133e-02
2.808168103448276387e+00,-6.199999999999999956e-02
2.810168223180077085e+00,-5.899999999999999689e-02
2.812168342911877783e+00,-5.700000000000000205e-02
2.814168462643678481e+00,-5.600000000000000117e-02
2.816168582375479179e+00,-5.500000000000000028e-02
2.818168702107279877e+00,-5.500000000000000028e-02
2.820168821839081019e+00,-5.500000000000000028e-02
2.822168941570881717e+00,-5.600000000000000117e-02
2.824169061302682415e+00,-5.800000000000000294e-02
2.826169181034483113e+00,-5.899999999999999689e-02
2.828169300766283811e+00,-5.899999999999999689e-02
2.830169420498084509e+00,-5.999999999999999778e-02
2.832169540229885207e+00,-5.999999999999999778e-02
2.834169659961686349e+00,-5.999999999999999778e-02
2.836169779693487047e+00,-5.999999999999999778e-02
2.838169899425287745e+00,-5.999999999999999778e-02
2.840170019157088444e+00,-5.999999999999999778e-02
2.842170138888889142e+00,-5.899999999999999689e-02
2.844170258620689840e+00,-5.700000000000000205e-02
2.846170378352490982e+00,-5.500000000000000028e-02
2.848170498084291680e+00,-5.299999999999999850e-02
2.850170617816092378e+00,-5.099999999999999672e-02
2.852170737547893076e+00,-5.000000000000000278e-02
2.854170857279693774e+00,-5.000000000000000278e-02
2.856170977011494472e+00,-5.099999999999999672e-02
2.858171096743295170e+00,-5.199999999999999761e-02
2.860171216475096312e+00,-5.199999999999999761e-02
2.862171336206897010e+00,-5.399999999999999939e-02
2.864171455938697708e+00,-5.600000000000000117e-02
2.866171575670498406e+00,-5.800000000000000294e-02
2.868171695402299104e+00,-5.999999999999999778e-02
2.870171815134099802e+00,-6.199999999999999956e-02
2.872171934865900944e+00,-6.300000000000000044e-02
2.874172054597701642e+00,-6.099999999999999867e-02
2.876172174329502340e+00,-5.899999999999999689e-02
2.878172294061303038e+00,-5.700000000000000205e-02
2.880172413793103736e+00,-5.399999999999999939e-02
2.882172533524904434e+00,-5.299999999999999850e-02
2.884172653256705132e+00,-5.299999999999999850e-02
2.886172772988506274e+00,-5.299999999999999850e-02
2.888172892720306972e+00,-5.500000000000000028e-02
2.890173012452107670e+00,-5.600000000000000117e-02
2.892173132183908368e+00,-5.700000000000000205e-02
2.894173251915709066e+00,-5.700000000000000205e-02
2.896173371647509764e+00,-5.700000000000000205e-02
2.898173491379310907e+00,-5.700000000000000205e-02
2.900173611111111605e+00,-5.700000000000000205e-02
2.902173730842912303e+00,-5.600000000000000117e-02
2.904173850574713001e+00,-5.700000000000000205e-02
2.906173970306513699e+00,-5.700000000000000205e-02
2.908174090038314397e+00,-5.800000000000000294e-02
2.910174209770115539e+00,-5.999999999999999778e-02
2.912174329501916237e+00,-6.199999999999999956e-02
2.914174449233716935e+00,-6.300000000000000044e-02
2.916174568965517633e+00,-6.400000000000000133e-02
2.918174688697318331e+00,-6.300000000000000044e-02
2.920174808429119029e+00,-6.199999999999999956e-02
2.922174928160919727e+00,-6.099999999999999867e-02
2.924175047892720869e+00,-5.899999999999999689e-02
2.926175167624521567e+00,-5.700000000000000205e-02
2.928175287356322265e+00,-5.500000000000000028e-02
2.930175407088122963e+00,-5.399999999999999939e-02
2.932175526819923661e+00,-5.399999999999999939e-02
2.934175646551724359e+00,-5.299999999999999850e-02
2.936175766283525501e+00,-5.399999999999999939e-02
2.938175886015326199e+00,-5.500000000000000028e-02
2.940176005747126897e+00,-5.600000000000000117e-02
2.942176125478927595e+00,-5.800000000000000294e-02
2.944176245210728293e+00,-5.999999999999999778e-02
2.946176364942528991e+00,-6.099999999999999867e-02
2.948176484674329689e+00,-6.099999999999999867e-02
2.950176604406130831e+00,-5.999999999999999778e-02
2.952176724137931529e+00,-5.899999999999999689e-02
2.954176843869732227e+00,-5.700000000000000205e-02
2.956176963601532925e+00,-5.500000000000000028e-02
2.958177083333333623e+00,-5.500000000000000028e-02
2.960177203065134321e+00,-5.500000000000000028e-02
2.962177322796935464e+00,-5.700000000000000205e-02
2.964177442528736162e+00,-5.899999999999999689e-02
2.966177562260536860e+00,-5.999999999999999778e-02
2.968177681992337558e+00,-5.999999999999999778e-02
2.970177801724138256e+00,-5.899999999999999689e-02
2.972177921455938954e+00,-5.600000000000000117e-02
2.974178041187739652e+00,-5.099999999999999672e-02
2.976178160919540794e+00,-4.599999999999999922e-02
2.978178280651341492e+00,-4.100000000000000172e-02
2.980178400383142190e+00,-3.599999999999999728e-02
2.982178520114942888e+00,-3.099999999999999978e-02
2.984178639846743586e+00,-2.800000000000000058e-02
2.986178759578544284e+00,-2.500000000000000139e-02
2.988178879310345426e+00,-2.299999999999999961e-02
2.990178999042146124e+00,-2.299999999999999961e-02
2.992179118773946822e+00,-2.299999999999999961e-02
2.994179238505747520e+00,-2.400000000000000050e-02
2.996179358237548218e+00,-2.400000000000000050e-02
2.998179477969348916e+00,-2.299999999999999961e-02
3.000179597701149614e+00,-2.000000000000000042e-02
3.002179717432950756e+00,-1.400000000000000029e-02
3.004179837164751454e+00,-8.000000000000000167e-03
3.006179956896552152e+00,-0.000000000000000000e+00
3.008180076628352850e+00,7.000000000000000146e-03
3.010180196360153548e+00,1.299999999999999940e-02
3.012180316091954246e+00,1.600000000000000033e-02
3.014180435823755388e+00,1.799999999999999864e-02
3.016180555555556086e+00,1.799999999999999864e-02
3.018180675287356785e+00,1.700000000000000122e-02
3.020180795019157483e+00,1.799999999999999864e-02
3.022180914750958181e+00,1.899999999999999953e-02
3.024181034482758879e+00,2.299999999999999961e-02
3.026181154214559577e+00,2.800000000000000058e-02
3.028181273946360719e+00,3.300000000000000155e-02
3.030181393678161417e+00,3.799999999999999906e-02
3.032181513409962115e+00,4.100000000000000172e-02
3.034181633141762813e+00,4.200000000000000261e-02
3.036181752873563511e+00,4.000000000000000083e-02
3.038181872605364209e+00,3.500000000000000333e-02
3.040181992337165351e+00,2.800000000000000058e-02
3.042182112068966049e+00,1.899999999999999953e-02
3.044182231800766747e+00,8.999999999999999320e-03
3.046182351532567445e+00,-1.000000000000000021e-03
3.048182471264368143e+00,-1.000000000000000021e-02
3.050182590996168841e+00,-2.000000000000000042e-02
3.052182710727969539e+00,-2.900000000000000147e-02
3.054182830459770681e+00,-3.899999999999999994e-02
3.056182950191571379e+00,-4.800000000000000100e-02
3.058183069923372077e+00,-5.700000000000000205e-02
3.060183189655172775e+00,-6.500000000000000222e-02
3.062183309386973473e+00,-7.000000000000000666e-02
3.064183429118774171e+00,-7.299999999999999545e-02
3.066183548850575313e+00,-7.399999999999999634e-02
3.068183668582376011e+00,-7.199999999999999456e-02
3.070183788314176709e+00,-7.000000000000000666e-02
3.072183908045977407e+00,-6.800000000000000488e-02
3.074184027777778105e+00,-6.800000000000000488e-02
3.076184147509578803e+00,-7.000000000000000666e-02
3.078184267241379501e+00,-7.399999999999999634e-02
3.080184386973180644e+00,-7.799999999999999989e-02
3.082184506704981342e+00,-8.100000000000000255e-02
3.084184626436782040e+00,-8.300000000000000433e-02
3.086184746168582738e+00,-8.200000000000000344e-02
3.088184865900383436e+00,-8.000000000000000167e-02
3.090184985632184134e+00,-7.699999999999999900e-02
3.092185105363985276e+00,-7.499999999999999722e-02
3.094185225095785974e+00,-7.299999999999999545e-02
3.096185344827586672e+00,-7.299999999999999545e-02
3.098185464559387370e+00,-7.499999999999999722e-02
3.100185584291188068e+00,-7.799999999999999989e-02
3.102185704022988766e+00,-8.200000000000000344e-02
3.104185823754789464e+00,-8.400000000000000522e-02
3.106185943486590606e+00,-8.400000000000000522e-02
3.108186063218391304e+00,-8.300000000000000433e-02
3.110186182950192002e+00,-8.100000000000000255e-02
3.112186302681992700e+00,-7.799999999999999989e-02
3.114186422413793398e+00,-7.599999999999999811e-02
3.116186542145594096e+00,-7.599999999999999811e-02
3.118186661877395238e+00,-8.000000000000000167e-02
3.120186781609195936e+00,-8.599999999999999312e-02
3.122186901340996634e+00,-9.500000000000000111e-02
3.124187021072797332e+00,-1.049999999999999961e-01
3.126187140804598030e+00,-1.150000000000000050e-01
3.128187260536398728e+00,-1.209999999999999964e-01
3.130187380268199426e+00,-1.219999999999999973e-01
3.132187500000000568e+00,-1.150000000000000050e-01
3.134187619731801266e+00,-9.800000000000000377e-02
3.136187739463601964e+00,-6.800000000000000488e-02
3.138187859195402662e+00,-2.299999999999999961e-02
3.140187978927203361e+00,3.899999999999999994e-02
3.142188098659004059e+00,1.179999999999999938e-01
3.144188218390805201e+00,2.139999999999999958e-01
3.146188338122605899e+00,3.190000000000000058e-01
3.148188457854406597e+00,4.279999999999999916e-01
3.150188577586207295e+00,5.300000000000000266e-01
3.152188697318007993e+00,6.179999999999999938e-01
3.154188817049808691e+00,6.820000000000000506e-01
3.156188936781609389e+00,7.169999999999999707e-01
3.158189056513410531e+00,7.169999999999999707e-01
3.160189176245211229e+00,6.770000000000000462e-01
3.162189295977011927e+00,5.939999999999999725e-01
3.164189415708812625e+00,4.680000000000000271e-01
3.166189535440613323e+00,3.089999999999999969e-01
3.168189655172414021e+00,1.290000000000000036e-01
3.170189774904215163e+00,-5.099999999999999672e-02
3.172189894636015861e+00,-2.109999999999999931e-01
3.174190014367816559e+00,-3.370000000000000218e-01
3.176190134099617257e+00,-4.189999999999999836e-01
3.178190253831417955e+00,-4.590000000000000191e-01
3.180190373563218653e+00,-4.650000000000000244e-01
3.182190493295019351e+00,-4.480000000000000093e-01
3.184190613026820493e+00,-4.189999999999999836e-01
3.186190732758621191e+00,-3.870000000000000107e-01
3.188190852490421889e+00,-3.559999999999999831e-01
3.190190972222222587e+00,-3.290000000000000147e-01
3.192191091954023285e+00,-3.049999999999999933e-01
3.194191211685823983e+00,-2.859999999999999765e-01
3.196191331417625126e+00,-2.690000000000000169e-01
3.198191451149425824e+00,-2.530000000000000027e-01
3.200191570881226522e+00,-2.349999999999999867e-01
3.202191690613027220e+00,-2.139999999999999958e-01
3.204191810344827918e+00,-1.880000000000000004e-01
3.206191930076628616e+00,-1.580000000000000016e-01
3.208192049808429314e+00,-1.270000000000000018e-01
3.210192169540230456e+00,-9.900000000000000466e-02
3.212192289272031154e+00,-7.699999999999999900e-02
3.214192409003831852e+00,-6.300000000000000044e-02
3.216192528735632550e+00,-5.899999999999999689e-02
3.218192648467433248e+00,-6.099999999999999867e-02
3.220192768199233946e+00,-6.500000000000000222e-02
3.222192887931035088e+00,-7.000000000000000666e-02
3.224193007662835786e+00,-7.099999999999999367e-02
3.226193127394636484e+00,-6.800000000000000488e-02
3.228193247126437182e+00,-6.099999999999999867e-02
3.230193366858237880e+00,-5.299999999999999850e-02
3.232193486590038578e+00,-4.599999999999999922e-02
3.234193606321839276e+00,-4.100000000000000172e-02
3.236193726053640418e+00,-3.899999999999999994e-02
3.238193845785441116e+00,-3.899999999999999994e-02
3.240193965517241814e+00,-4.100000000000000172e-02
3.242194085249042512e+00,-4.299999999999999656e-02
3.244194204980843210e+00,-4.299999999999999656e-02
3.246194324712643908e+00,-4.200000000000000261e-02
3.248194444444445050e+00,-3.799999999999999906e-02
3.250194564176245748e+00,-3.300000000000000155e-02
3.252194683908046446e+00,-2.800000000000000058e-02
3.254194803639847144e+00,-2.400000000000000050e-02
3.256194923371647842e+00,-2.199999999999999872e-02
3.258195043103448540e+00,-2.199999999999999872e-02
3.260195162835249683e+00,-2.299999999999999961e-02
3.262195282567050381e+00,-2.500000000000000139e-02
3.264195402298851079e+00,-2.599999999999999881e-02
3.266195522030651777e+00,-2.599999999999999881e-02
3.268195641762452475e+00,-2.400000000000000050e-02
3.270195761494253173e+00,-2.000000000000000042e-02
3.272195881226053871e+00,-1.600000000000000033e-02
3.274196000957855013e+00,-1.299999999999999940e-02
3.276196120689655711e+00,-1.000000000000000021e-02
3.278196240421456409e+00,-1.000000000000000021e-02
3.280196360153257107e+00,-1.099999999999999936e-02
3.282196479885057805e+00,-1.299999999999999940e-02
3.284196599616858503e+00,-1.400000000000000029e-02
3.286196719348659645e+00,-1.499999999999999944e-02
3.288196839080460343e+00,-1.499999999999999944e-02
3.290196958812261041e+00,-1.200000000000000025e-02
3.292197078544061739e+00,-8.999999999999999320e-03
3.294197198275862437e+00,-5.000000000000000104e-03
3.296197318007663135e+00,-2.000000000000000042e-03
3.298197437739463833e+00,-0.000000000000000000e+00
3.300197557471264975e+00,0.000000000000000000e+00
3.302197677203065673e+00,0.000000000000000000e+00
3.304197796934866371e+00,0.000000000000000000e+00
3.306197916666667069e+00,-0.000000000000000000e+00
3.308198036398467767e+00,1.000000000000000021e-03
3.310198156130268465e+00,3.000000000000000062e-03
3.312198275862069607e+00,5.000000000000000104e-03
3.314198395593870305e+00,8.999999999999999320e-03
3.316198515325671003e+00,1.200000000000000025e-02
3.318198635057471702e+00,1.400000000000000029e-02
3.320198754789272400e+00,1.700000000000000122e-02
3.322198874521073098e+00,1.899999999999999953e-02
3.324198994252873796e+00,2.100000000000000130e-02
3.326199113984674938e+00,2.299999999999999961e-02
3.328199233716475636e+00,2.500000000000000139e-02
3.330199353448276334e+00,2.800000000000000058e-02
3.332199473180077032e+00,2.999999999999999889e-02
3.334199592911877730e+00,3.099999999999999978e-02
3.336199712643678428e+00,3.300000000000000155e-02
3.338199832375479570e+00,3.500000000000000333e-02
3.340199952107280268e+00,3.699999999999999817e-02
3.342200071839080966e+00,4.100000000000000172e-02
3.344200191570881664e+00,4.599999999999999922e-02
3.346200311302682362e+00,5.199999999999999761e-02
3.348200431034483060e+00,5.800000000000000294e-02
3.350200550766283758e+00,6.400000000000000133e-02
3.352200670498084900e+00,6.900000000000000577e-02
3.354200790229885598e+00,7.299999999999999545e-02
3.356200909961686296e+00,7.699999999999999900e-02
3.358201029693486994e+00,8.100000000000000255e-02
3.360201149425287692e+00,8.500000000000000611e-02
3.362201269157088390e+00,9.099999999999999756e-02
3.364201388888889532e+00,9.800000000000000377e-02
3.366201508620690230e+00,1.049999999999999961e-01
3.368201628352490928e+00,1.130000000000000032e-01
3.370201748084291626e+00,1.199999999999999956e-01
3.372201867816092324e+00,1.260000000000000009e-01
3.374201987547893022e+00,1.310000000000000053e-01
3.376202107279693720e+00,1.360000000000000098e-01
3.378202227011494863e+00,1.419999999999999873e-01
3.380202346743295561e+00,1.479999999999999927e-01
3.382202466475096259e+00,1.549999999999999989e-01
3.384202586206896957e+00,1.630000000000000060e-01
3.386202705938697655e+00,1.710000000000000131e-01
3.388202825670498353e+00,1.789999999999999925e-01
3.390202945402299495e+00,1.869999999999999996e-01
3.392203065134100193e+00,1.960000000000000075e-01
3.394203184865900891e+00,2.049999999999999878e-01
3.396203304597701589e+00,2.129999999999999949e-01
3.398203424329502287e+00,2.210000000000000020e-01
3.400203544061302985e+00,2.290000000000000091e-01
3.402203663793103683e+00,2.349999999999999867e-01
3.404203783524904825e+00,2.409999999999999920e-01
3.406203903256705523e+00,2.449999999999999956e-01
3.408204022988506221e+00,2.489999999999999991e-01
3.410204142720306919e+00,2.520000000000000018e-01
3.412204262452107617e+00,2.560000000000000053e-01
3.414204382183908315e+00,2.590000000000000080e-01
3.416204501915709457e+00,2.630000000000000115e-01
3.418204621647510155e+00,2.670000000000000151e-01
3.420204741379310853e+00,2.700000000000000178e-01
3.422204861111111551e+00,2.730000000000000204e-01
3.424204980842912249e+00,2.740000000000000213e-01
3.426205100574712947e+00,2.730000000000000204e-01
3.428205220306513645e+00,2.690000000000000169e-01
3.430205340038314787e+00,2.640000000000000124e-01
3.432205459770115485e+00,2.560000000000000053e-01
3.434205579501916183e+00,2.459999999999999964e-01
3.436205699233716881e+00,2.349999999999999867e-01
3.438205818965517579e+00,2.240000000000000047e-01
3.440205938697318278e+00,2.119999999999999940e-01
3.442206058429119420e+00,1.990000000000000102e-01
3.444206178160920118e+00,1.849999999999999978e-01
3.446206297892720816e+00,1.700000000000000122e-01
3.448206417624521514e+00,1.549999999999999989e-01
3.450206537356322212e+00,1.400000000000000133e-01
3.452206657088122910e+00,1.250000000000000000e-01
3.454206776819923608e+00,1.110000000000000014e-01
3.456206896551724750e+00,9.800000000000000377e-02
3.458207016283525448e+00,8.599999999999999312e-02
3.460207136015326146e+00,7.399999999999999634e-02
3.462207255747126844e+00,6.199999999999999956e-02
3.464207375478927542e+00,4.900000000000000189e-02
3.466207495210728240e+00,3.699999999999999817e-02
3.468207614942529382e+00,2.599999999999999881e-02
3.470207734674330080e+00,1.700000000000000122e-02
3.472207854406130778e+00,8.999999999999999320e-03
3.474207974137931476e+00,3.000000000000000062e-03
3.476208093869732174e+00,-3.000000000000000062e-03
3.478208213601532872e+00,-8.999999999999999320e-03
3.480208333333333570e+00,-1.400000000000000029e-02
3.482208453065134712e+00,-1.899999999999999953e-02
3.484208572796935410e+00,-2.400000000000000050e-02
3.486208692528736108e+00,-2.800000000000000058e-02
3.488208812260536806e+00,-3.099999999999999978e-02
3.490208931992337504e+00,-3.300000000000000155e-02
3.492209051724138202e+00,-3.599999999999999728e-02
3.494209171455939344e+00,-3.799999999999999906e-02
3.496209291187740043e+00,-4.100000000000000172e-02
3.498209410919540741e+00,-4.299999999999999656e-02
3.500209530651341439e+00,-4.599999999999999922e-02
3.502209650383142137e+00,-4.800000000000000100e-02
3.504209770114942835e+00,-5.000000000000000278e-02
3.506209889846743533e+00,-5.199999999999999761e-02
3.508210009578544675e+00,-5.299999999999999850e-02
3.510210129310345373e+00,-5.299999999999999850e-02
3.512210249042146071e+00,-5.199999999999999761e-02
3.514210368773946769e+00,-5.199999999999999761e-02
3.516210488505747467e+00,-5.099999999999999672e-02
3.518210608237548165e+00,-5.099999999999999672e-02
3.520210727969349307e+00,-5.099999999999999672e-02
3.522210847701150005e+00,-5.099999999999999672e-02
3.524210967432950703e+00,-5.099999999999999672e-02
3.526211087164751401e+00,-5.099999999999999672e-02
3.528211206896552099e+00,-5.000000000000000278e-02
3.530211326628352797e+00,-4.900000000000000189e-02
3.532211446360153495e+00,-4.800000000000000100e-02
3.534211566091954637e+00,-4.800000000000000100e-02
3.536211685823755335e+00,-4.800000000000000100e-02
3.538211805555556033e+00,-4.900000000000000189e-02
3.540211925287356731e+00,-5.000000000000000278e-02
3.542212045019157429e+00,-5.099999999999999672e-02
3.544212164750958127e+00,-5.199999999999999761e-02
3.546212284482759269e+00,-5.199999999999999761e-02
3.548212404214559967e+00,-5.299999999999999850e-02
3.550212523946360665e+00,-5.299999999999999850e-02
3.552212643678161363e+00,-5.399999999999999939e-02
3.554212763409962061e+00,-5.399999999999999939e-02
3.556212883141762759e+00,-5.500000000000000028e-02
3.558213002873563457e+00,-5.500000000000000028e-02
3.560213122605364600e+00,-5.500000000000000028e-02
3.562213242337165298e+00,-5.399999999999999939e-02
3.564213362068965996e+00,-5.299999999999999850e-02
3.566213481800766694e+00,-5.199999999999999761e-02
3.568213601532567392e+00,-5.099999999999999672e-02
3.570213721264368090e+00,-5.000000000000000278e-02
3.572213840996169232e+00,-4.900000000000000189e-02
3.574213960727969930e+00,-5.000000000000000278e-02
3.576214080459770628e+00,-5.099999999999999672e-02
3.578214200191571326e+00,-5.199999999999999761e-02
3.580214319923372024e+00,-5.399999999999999939e-02
3.582214439655172722e+00,-5.399999999999999939e-02
3.584214559386973420e+00,-5.500000000000000028e-02
3.586214679118774562e+00,-5.399999999999999939e-02
3.588214798850575260e+00,-5.399999999999999939e-02
3.590214918582375958e+00,-5.199999999999999761e-02
3.592215038314176656e+00,-5.099999999999999672e-02
3.594215158045977354e+00,-4.900000000000000189e-02
3.596215277777778052e+00,-4.700000000000000011e-02
3.598215397509579194e+00,-4.499999999999999833e-02
3.600215517241379892e+00,-4.499999999999999833e-02
3.602215636973180590e+00,-4.499999999999999833e-02
3.604215756704981288e+00,-4.499999999999999833e-02
3.606215876436781986e+00,-4.599999999999999922e-02
3.608215996168582684e+00,-4.700000000000000011e-02
3.610216115900383826e+00,-4.800000000000000100e-02
3.612216235632184524e+00,-4.700000000000000011e-02
3.614216355363985222e+00,-4.700000000000000011e-02
3.616216475095785921e+00,-4.499999999999999833e-02
3.618216594827586619e+00,-4.399999999999999745e-02
3.620216714559387317e+00,-4.299999999999999656e-02
3.622216834291188015e+00,-4.200000000000000261e-02
3.624216954022989157e+00,-4.200000000000000261e-02
3.626217073754789855e+00,-4.299999999999999656e-02
3.628217193486590553e+00,-4.499999999999999833e-02
3.630217313218391251e+00,-4.599999999999999922e-02
3.632217432950191949e+00,-4.800000000000000100e-02
3.634217552681992647e+00,-4.800000000000000100e-02
3.636217672413793789e+00,-4.800000000000000100e-02
3.638217792145594487e+00,-4.700000000000000011e-02
3.640217911877395185e+00,-4.499999999999999833e-02
3.642218031609195883e+00,-4.399999999999999745e-02
3.644218151340996581e+00,-4.299999999999999656e-02
3.646218271072797279e+00,-4.399999999999999745e-02
3.648218390804597977e+00,-4.700000000000000011e-02
3.650218510536399119e+00,-5.000000000000000278e-02
3.652218630268199817e+00,-5.399999999999999939e-02
3.654218750000000515e+00,-5.700000000000000205e-02
3.656218869731801213e+00,-5.899999999999999689e-02
3.658218989463601911e+00,-5.899999999999999689e-02
3.660219109195402609e+00,-5.800000000000000294e-02
3.662219228927203751e+00,-5.600000000000000117e-02
3.664219348659004449e+00,-5.299999999999999850e-02
3.666219468390805147e+00,-5.099999999999999672e-02
3.668219588122605845e+00,-4.900000000000000189e-02
3.670219707854406543e+00,-4.800000000000000100e-02
3.672219827586207241e+00,-4.800000000000000100e-02
3.674219947318007939e+00,-4.800000000000000100e-02
3.676220067049809082e+00,-4.800000000000000100e-02
3.678220186781609780e+00,-4.800000000000000100e-02
3.680220306513410478e+00,-4.700000000000000011e-02
3.682220426245211176e+00,-4.599999999999999922e-02
3.684220545977011874e+00,-4.499999999999999833e-02
3.686220665708812572e+00,-4.299999999999999656e-02
3.688220785440613714e+00,-4.200000000000000261e-02
3.690220905172414412e+00,-4.100000000000000172e-02
3.692221024904215110e+00,-4.000000000000000083e-02
3.694221144636015808e+00,-4.100000000000000172e-02
3.696221264367816506e+00,-4.100000000000000172e-02
3.698221384099617204e+00,-4.299999999999999656e-02
3.700221503831417902e+00,-4.499999999999999833e-02
3.702221623563219044e+00,-4.700000000000000011e-02
3.704221743295019742e+00,-5.000000000000000278e-02
3.706221863026820440e+00,-5.099999999999999672e-02
3.708221982758621138e+00,-5.199999999999999761e-02
3.710222102490421836e+00,-5.199999999999999761e-02
3.712222222222222534e+00,-5.099999999999999672e-02
3.714222341954023676e+00,-5.000000000000000278e-02
3.716222461685824374e+00,-4.900000000000000189e-02
3.718222581417625072e+00,-4.900000000000000189e-02
3.720222701149425770e+00,-5.000000000000000278e-02
3.722222820881226468e+00,-5.099999999999999672e-02
3.724222940613027166e+00,-5.299999999999999850e-02
3.726223060344827864e+00,-5.500000000000000028e-02
3.728223180076629006e+00,-5.600000000000000117e-02
3.730223299808429704e+00,-5.600000000000000117e-02
3.732223419540230402e+00,-5.500000000000000028e-02
3.734223539272031100e+00,-5.399999999999999939e-02
3.736223659003831798e+00,-5.299999999999999850e-02
3.738223778735632497e+00,-5.299999999999999850e-02
3.740223898467433639e+00,-5.299999999999999850e-02
3.742224018199234337e+00,-5.399999999999999939e-02
3.744224137931035035e+00,-5.500000000000000028e-02
3.746224257662835733e+00,-5.600000000000000117e-02
3.748224377394636431e+00,-5.399999999999999939e-02
3.750224497126437129e+00,-5.199999999999999761e-02
3.752224616858237827e+00,-4.900000000000000189e-02
3.754224736590038969e+00,-4.499999999999999833e-02
3.756224856321839667e+00,-4.100000000000000172e-02
3.758224976053640365e+00,-3.699999999999999817e-02
3.760225095785441063e+00,-3.300000000000000155e-02
3.762225215517241761e+00,-2.900000000000000147e-02
3.764225335249042459e+00,-2.500000000000000139e-02
3.766225454980843601e+00,-2.199999999999999872e-02
3.768225574712644299e+00,-1.899999999999999953e-02
3.770225694444444997e+00,-1.700000000000000122e-02
3.772225814176245695e+00,-1.499999999999999944e-02
3.774225933908046393e+00,-1.299999999999999940e-02
3.776226053639847091e+00,-1.099999999999999936e-02
3.778226173371647789e+00,-8.999999999999999320e-03
3.780226293103448931e+00,-6.000000000000000125e-03
3.782226412835249629e+00,-2.000000000000000042e-03
3.784226532567050327e+00,3.000000000000000062e-03
3.786226652298851025e+00,8.999999999999999320e-03
3.788226772030651723e+00,1.499999999999999944e-02
3.790226891762452421e+00,2.100000000000000130e-02
3.792227011494253563e+00,2.599999999999999881e-02
3.794227131226054262e+00,2.999999999999999889e-02
3.796227250957854960e+00,3.200000000000000067e-02
3.798227370689655658e+00,3.200000000000000067e-02
3.800227490421456356e+00,3.300000000000000155e-02
3.802227610153257054e+00,3.400000000000000244e-02
3.804227729885057752e+00,3.500000000000000333e-02
3.806227849616858894e+00,3.799999999999999906e-02
3.808227969348659592e+00,4.000000000000000083e-02
3.810228089080460290e+00,4.000000000000000083e-02
3.812228208812260988e+00,3.899999999999999994e-02
3.814228328544061686e+00,3.599999999999999728e-02
3.816228448275862384e+00,3.200000000000000067e-02
3.818228568007663526e+00,2.699999999999999969e-02
3.820228687739464224e+00,2.299999999999999961e-02
3.822228807471264922e+00,1.799999999999999864e-02
3.824228927203065620e+00,1.299999999999999940e-02
3.826229046934866318e+00,6.000000000000000125e-03
3.828229166666667016e+00,-3.000000000000000062e-03
3.830229286398467714e+00,-1.400000000000000029e-02
3.832229406130268856e+00,-2.699999999999999969e-02
3.834229525862069554e+00,-4.100000000000000172e-02
3.836229645593870252e+00,-5.299999999999999850e-02
3.838229765325670950e+00,-6.300000000000000044e-02
3.840229885057471648e+00,-7.000000000000000666e-02
3.842230004789272346e+00,-7.299999999999999545e-02
3.844230124521073488e+00,-7.199999999999999456e-02
3.846230244252874186e+00,-7.000000000000000666e-02
3.848230363984674884e+00,-6.600000000000000311e-02
3.850230483716475582e+00,-6.199999999999999956e-02
3.852230603448276280e+00,-5.999999999999999778e-02
3.854230723180076978e+00,-6.099999999999999867e-02
3.856230842911877676e+00,-6.400000000000000133e-02
3.858230962643678819e+00,-6.700000000000000400e-02
3.860231082375479517e+00,-7.199999999999999456e-02
3.862231202107280215e+00,-7.499999999999999722e-02
3.864231321839080913e+00,-7.599999999999999811e-02
3.866231441570881611e+00,-7.499999999999999722e-02
3.868231561302682309e+00,-7.299999999999999545e-02
3.870231681034483451e+00,-7.099999999999999367e-02
3.872231800766284149e+00,-6.900000000000000577e-02
3.874231920498084847e+00,-7.000000000000000666e-02
3.876232040229885545e+00,-7.199999999999999456e-02
3.878232159961686243e+00,-7.599999999999999811e-02
3.880232279693486941e+00,-8.000000000000000167e-02
3.882232399425287639e+00,-8.200000000000000344e-02
3.884232519157088781e+00,-8.200000000000000344e-02
3.886232638888889479e+00,-8.100000000000000255e-02
3.888232758620690177e+00,-7.699999999999999900e-02
3.890232878352490875e+00,-7.399999999999999634e-02
3.892232998084291573e+00,-7.099999999999999367e-02
3.894233117816092271e+00,-7.099999999999999367e-02
3.896233237547893413e+00,-7.499999999999999722e-02
3.898233357279694111e+00,-8.200000000000000344e-02
3.900233477011494809e+00,-9.199999999999999845e-02
3.902233596743295507e+00,-1.039999999999999952e-01
3.904233716475096205e+00,-1.150000000000000050e-01
3.906233836206896903e+00,-1.229999999999999982e-01
3.908233955938697601e+00,-1.239999999999999991e-01
3.910234075670498743e+00,-1.170000000000000068e-01
3.912234195402299441e+00,-9.900000000000000466e-02
3.914234315134100139e+00,-6.800000000000000488e-02
3.916234434865900838e+00,-2.100000000000000130e-02
3.918234554597701536e+00,4.200000000000000261e-02
3.920234674329502234e+00,1.239999999999999991e-01
3.922234794061303376e+00,2.210000000000000020e-01
3.924234913793104074e+00,3.280000000000000138e-01
3.926235033524904772e+00,4.390000000000000013e-01
3.928235153256705470e+00,5.430000000000000382e-01
3.930235272988506168e+00,6.320000000000000062e-01
3.932235392720306866e+00,6.979999999999999538e-01
3.934235512452108008e+00,7.339999999999999858e-01
3.936235632183908706e+00,7.349999999999999867e-01
3.938235751915709404e+00,6.959999999999999520e-01
3.940235871647510102e+00,6.119999999999999885e-01
3.942235991379310800e+00,4.859999999999999876e-01
3.944236111111111498e+00,3.250000000000000111e-01
3.946236230842912196e+00,1.419999999999999873e-01
3.948236350574713338e+00,-4.200000000000000261e-02
3.950236470306514036e+00,-2.069999999999999896e-01
3.952236590038314734e+00,-3.370000000000000218e-01
3.954236709770115432e+00,-4.229999999999999871e-01
3.956236829501916130e+00,-4.660000000000000253e-01
3.958236949233716828e+00,-4.729999999999999760e-01
3.960237068965517970e+00,-4.560000000000000164e-01
3.962237188697318668e+00,-4.259999999999999898e-01
3.964237308429119366e+00,-3.930000000000000160e-01
3.966237428160920064e+00,-3.609999999999999876e-01
3.968237547892720762e+00,-3.320000000000000173e-01
3.970237667624521460e+00,-3.089999999999999969e-01
3.972237787356322158e+00,-2.889999999999999791e-01
3.974237907088123301e+00,-2.710000000000000187e-01
3.976238026819923999e+00,-2.550000000000000044e-01
3.978238146551724697e+00,-2.359999999999999876e-01
3.980238266283525395e+00,-2.129999999999999949e-01
3.982238386015326093e+00,-1.859999999999999987e-01
3.984238505747126791e+00,-1.549999999999999989e-01
3.986238625478927933e+00,-1.229999999999999982e-01
3.988238745210728631e+00,-9.400000000000000022e-02
3.990238864942529329e+00,-7.199999999999999456e-02
3.992238984674330027e+00,-5.899999999999999689e-02
3.994239104406130725e+00,-5.399999999999999939e-02
3.996239224137931423e+00,-5.600000000000000117e-02
3.998239343869732121e+00,-6.099999999999999867e-02
4.000239463601532819e+00,-6.500000000000000222e-02
4.002239583333333961e+00,-6.600000000000000311e-02
4.004239703065134215e+00,-6.300000000000000044e-02
4.006239822796935357e+00,-5.700000000000000205e-02
4.008239942528736499e+00,-4.900000000000000189e-02
4.010240062260536753e+00,-4.200000000000000261e-02
4.012240181992337895e+00,-3.699999999999999817e-02
4.014240301724138149e+00,-3.500000000000000333e-02
4.016240421455939291e+00,-3.599999999999999728e-02
4.018240541187739545e+00,-3.899999999999999994e-02
4.020240660919540687e+00,-4.100000000000000172e-02
4.022240780651341829e+00,-4.200000000000000261e-02
4.024240900383142083e+00,-3.899999999999999994e-02
4.026241020114943225e+00,-3.500000000000000333e-02
4.028241139846743479e+00,-2.800000000000000058e-02
4.030241259578544621e+00,-2.199999999999999872e-02
4.032241379310345764e+00,-1.799999999999999864e-02
4.034241499042146017e+00,-1.600000000000000033e-02
4.036241618773947160e+00,-1.799999999999999864e-02
4.038241738505747414e+00,-2.100000000000000130e-02
4.040241858237548556e+00,-2.500000000000000139e-02
4.042241977969348810e+00,-2.800000000000000058e-02
4.044242097701149952e+00,-2.900000000000000147e-02
4.046242217432951094e+00,-2.699999999999999969e-02
4.048242337164751348e+00,-2.400000000000000050e-02
4.050242456896552490e+00,-2.000000000000000042e-02
4.052242576628352744e+00,-1.700000000000000122e-02
4.054242696360153886e+00,-1.299999999999999940e-02
4.056242816091954140e+00,-1.099999999999999936e-02
4.058242935823755282e+00,-8.999999999999999320e-03
4.060243055555556424e+00,-8.000000000000000167e-03
4.062243175287356678e+00,-7.000000000000000146e-03
4.064243295019157820e+00,-6.000000000000000125e-03
4.066243414750958074e+00,-5.000000000000000104e-03
4.068243534482759216e+00,-3.000000000000000062e-03
4.070243654214559470e+00,-1.000000000000000021e-03
4.072243773946360612e+00,3.000000000000000062e-03
4.074243893678161754e+00,6.000000000000000125e-03
4.076244013409962008e+00,8.000000000000000167e-03
4.078244133141763150e+00,8.999999999999999320e-03
4.080244252873563404e+00,1.000000000000000021e-02
4.082244372605364546e+00,1.099999999999999936e-02
4.084244492337165688e+00,1.099999999999999936e-02
4.086244612068965942e+00,1.299999999999999940e-02
4.088244731800767084e+00,1.499999999999999944e-02
4.090244851532567338e+00,1.799999999999999864e-02
4.092244971264368480e+00,2.100000000000000130e-02
4.094245090996168734e+00,2.400000000000000050e-02
4.096245210727969877e+00,2.599999999999999881e-02
4.098245330459771019e+00,2.699999999999999969e-02
4.100245450191571273e+00,2.800000000000000058e-02
4.102245569923372415e+00,2.900000000000000147e-02
4.104245689655172669e+00,3.099999999999999978e-02
4.106245809386973811e+00,3.300000000000000155e-02
4.108245929118774065e+00,3.699999999999999817e-02
4.110246048850575207e+00,4.100000000000000172e-02
4.112246168582376349e+00,4.599999999999999922e-02
4.114246288314176603e+00,5.000000000000000278e-02
4.116246408045977745e+00,5.399999999999999939e-02
4.118246527777777999e+00,5.600000000000000117e-02
4.120246647509579141e+00,5.700000000000000205e-02
4.122246767241380283e+00,5.800000000000000294e-02
4.124246886973180537e+00,5.899999999999999689e-02
4.126247006704981679e+00,6.099999999999999867e-02
4.128247126436781933e+00,6.500000000000000222e-02
4.130247246168583075e+00,7.000000000000000666e-02
4.132247365900383329e+00,7.499999999999999722e-02
4.134247485632184471e+00,8.100000000000000255e-02
4.136247605363985613e+00,8.699999999999999400e-02
4.138247725095785867e+00,9.199999999999999845e-02
4.140247844827587009e+00,9.900000000000000466e-02
4.142247964559387263e+00,1.049999999999999961e-01
4.144248084291188405e+00,1.110000000000000014e-01
4.146248204022988659e+00,1.179999999999999938e-01
4.148248323754789801e+00,1.250000000000000000e-01
4.150248443486590944e+00,1.310000000000000053e-01
4.152248563218391197e+00,1.370000000000000107e-01
4.154248682950192340e+00,1.439999999999999891e-01
4.156248802681992593e+00,1.499999999999999944e-01
4.158248922413793736e+00,1.559999999999999998e-01
4.160249042145593990e+00,1.630000000000000060e-01
4.162249161877395132e+00,1.690000000000000113e-01
4.164249281609196274e+00,1.759999999999999898e-01
4.166249401340996528e+00,1.839999999999999969e-01
4.168249521072797670e+00,1.910000000000000031e-01
4.170249640804597924e+00,1.980000000000000093e-01
4.172249760536399066e+00,2.049999999999999878e-01
4.174249880268200208e+00,2.119999999999999940e-01
4.176250000000000462e+00,2.190000000000000002e-01
4.178250119731801604e+00,2.250000000000000056e-01
4.180250239463601858e+00,2.320000000000000118e-01
4.182250359195403000e+00,2.389999999999999902e-01
4.184250478927203254e+00,2.449999999999999956e-01
4.186250598659004396e+00,2.500000000000000000e-01
4.188250718390805538e+00,2.550000000000000044e-01
4.190250838122605792e+00,2.590000000000000080e-01
4.192250957854406934e+00,2.630000000000000115e-01
4.194251077586207188e+00,2.670000000000000151e-01
4.196251197318008330e+00,2.720000000000000195e-01
4.198251317049808584e+00,2.760000000000000231e-01
4.200251436781609726e+00,2.780000000000000249e-01
4.202251556513410868e+00,2.790000000000000258e-01
4.204251676245211122e+00,2.770000000000000240e-01
4.206251795977012264e+00,2.720000000000000195e-01
4.208251915708812518e+00,2.640000000000000124e-01
4.210252035440613660e+00,2.540000000000000036e-01
4.212252155172413914e+00,2.429999999999999938e-01
4.214252274904215056e+00,2.320000000000000118e-01
4.216252394636016199e+00,2.210000000000000020e-01
4.218252514367816453e+00,2.099999999999999922e-01
4.220252634099617595e+00,1.990000000000000102e-01
4.222252753831417849e+00,1.880000000000000004e-01
4.224252873563218991e+00,1.769999999999999907e-01
4.226252993295020133e+00,1.640000000000000069e-01
4.228253113026820387e+00,1.509999999999999953e-01
4.230253232758621529e+00,1.360000000000000098e-01
4.232253352490421783e+00,1.209999999999999964e-01
4.234253472222222925e+00,1.049999999999999961e-01
4.236253591954023179e+00,9.099999999999999756e-02
4.238253711685824321e+00,7.599999999999999811e-02
4.240253831417625463e+00,6.300000000000000044e-02
4.242253951149425717e+00,5.099999999999999672e-02
4.244254070881226859e+00,4.000000000000000083e-02
4.246254190613027113e+00,2.999999999999999889e-02
4.248254310344828255e+00,2.000000000000000042e-02
4.250254430076628509e+00,1.099999999999999936e-02
4.252254549808429651e+00,3.000000000000000062e-03
4.254254669540230793e+00,-5.000000000000000104e-03
4.256254789272031047e+00,-1.200000000000000025e-02
4.258254909003832189e+00,-1.899999999999999953e-02
4.260255028735632443e+00,-2.599999999999999881e-02
4.262255148467433585e+00,-3.099999999999999978e-02
4.264255268199233839e+00,-3.599999999999999728e-02
4.266255387931034981e+00,-4.000000000000000083e-02
4.268255507662836123e+00,-4.299999999999999656e-02
4.270255627394636377e+00,-4.499999999999999833e-02
4.272255747126437520e+00,-4.599999999999999922e-02
4.274255866858237773e+00,-4.599999999999999922e-02
4.276255986590038916e+00,-4.599999999999999922e-02
4.278256106321840058e+00,-4.700000000000000011e-02
4.280256226053640312e+00,-4.800000000000000100e-02
4.282256345785441454e+00,-5.000000000000000278e-02
4.284256465517241708e+00,-5.199999999999999761e-02
4.286256585249042850e+00,-5.399999999999999939e-02
4.288256704980843104e+00,-5.600000000000000117e-02
4.290256824712644246e+00,-5.800000000000000294e-02
4.292256944444445388e+00,-5.899999999999999689e-02
4.294257064176245642e+00,-5.999999999999999778e-02
4.296257183908046784e+00,-6.199999999999999956e-02
4.298257303639847038e+00,-6.300000000000000044e-02
4.300257423371648180e+00,-6.400000000000000133e-02
4.302257543103448434e+00,-6.500000000000000222e-02
4.304257662835249576e+00,-6.500000000000000222e-02
4.306257782567050718e+00,-6.400000000000000133e-02
4.308257902298850972e+00,-6.199999999999999956e-02
4.310258022030652114e+00,-6.099999999999999867e-02
4.312258141762452368e+00,-5.999999999999999778e-02
4.314258261494253510e+00,-5.899999999999999689e-02
4.316258381226053764e+00,-5.899999999999999689e-02
4.318258500957854906e+00,-5.899999999999999689e-02
4.320258620689656048e+00,-5.999999999999999778e-02
4.322258740421456302e+00,-6.099999999999999867e-02
4.324258860153257444e+00,-6.199999999999999956e-02
4.326258979885057698e+00,-6.300000000000000044e-02
4.328259099616858840e+00,-6.300000000000000044e-02
4.330259219348659983e+00,-6.300000000000000044e-02
4.332259339080460236e+00,-6.199999999999999956e-02
4.334259458812261379e+00,-6.199999999999999956e-02
4.336259578544061632e+00,-6.099999999999999867e-02
4.338259698275862775e+00,-6.099999999999999867e-02
4.340259818007663029e+00,-6.099999999999999867e-02
4.342259937739464171e+00,-5.999999999999999778e-02
4.344260057471265313e+00,-5.899999999999999689e-02
4.346260177203065567e+00,-5.700000000000000205e-02
4.348260296934866709e+00,-5.399999999999999939e-02
4.350260416666666963e+00,-5.299999999999999850e-02
4.352260536398468105e+00,-5.199999999999999761e-02
4.354260656130268359e+00,-5.199999999999999761e-02
4.356260775862069501e+00,-5.299999999999999850e-02
4.358260895593870643e+00,-5.399999999999999939e-02
4.360261015325670897e+00,-5.500000000000000028e-02
4.362261135057472039e+00,-5.500000000000000028e-02
4.364261254789272293e+00,-5.500000000000000028e-02
4.366261374521073435e+00,-5.399999999999999939e-02
4.368261494252873689e+00,-5.399999999999999939e-02
4.370261613984674831e+00,-5.299999999999999850e-02
4.372261733716475973e+00,-5.299999999999999850e-02
4.374261853448276227e+00,-5.099999999999999672e-02
4.376261973180077369e+00,-4.900000000000000189e-02
4.378262092911877623e+00,-4.700000000000000011e-02
4.380262212643678765e+00,-4.499999999999999833e-02
4.382262332375479907e+00,-4.499999999999999833e-02
4.384262452107280161e+00,-4.700000000000000011e-02
4.386262571839081303e+00,-5.000000000000000278e-02
4.388262691570881557e+00,-5.299999999999999850e-02
4.390262811302682699e+00,-5.600000000000000117e-02
4.392262931034482953e+00,-5.800000000000000294e-02
4.394263050766284096e+00,-5.800000000000000294e-02
4.396263170498085238e+00,-5.700000000000000205e-02
4.398263290229885492e+00,-5.600000000000000117e-02
4.400263409961686634e+00,-5.600000000000000117e-02
4.402263529693486888e+00,-5.500000000000000028e-02
4.404263649425288030e+00,-5.500000000000000028e-02
4.406263769157088284e+00,-5.399999999999999939e-02
4.408263888888889426e+00,-5.399999999999999939e-02
4.410264008620690568e+00,-5.399999999999999939e-02
4.412264128352490822e+00,-5.399999999999999939e-02
4.414264248084291964e+00,-5.500000000000000028e-02
4.416264367816092218e+00,-5.600000000000000117e-02
4.418264487547893360e+00,-5.600000000000000117e-02
4.420264607279693614e+00,-5.600000000000000117e-02
4.422264727011494756e+00,-5.600000000000000117e-02
4.424264846743295898e+00,-5.500000000000000028e-02
4.426264966475096152e+00,-5.399999999999999939e-02
4.428265086206897294e+00,-5.299999999999999850e-02
4.430265205938697548e+00,-5.199999999999999761e-02
4.432265325670498690e+00,-5.099999999999999672e-02
4.434265445402299832e+00,-5.099999999999999672e-02
4.436265565134100086e+00,-5.199999999999999761e-02
4.438265684865901228e+00,-5.299999999999999850e-02
4.440265804597701482e+00,-5.399999999999999939e-02
4.442265924329502624e+00,-5.600000000000000117e-02
4.444266044061302878e+00,-5.700000000000000205e-02
4.446266163793104020e+00,-5.700000000000000205e-02
4.448266283524905162e+00,-5.700000000000000205e-02
4.450266403256705416e+00,-5.500000000000000028e-02
4.452266522988506559e+00,-5.500000000000000028e-02
4.454266642720306812e+00,-5.399999999999999939e-02
4.456266762452107955e+00,-5.500000000000000028e-02
4.458266882183908209e+00,-5.700000000000000205e-02
4.460267001915709351e+00,-5.899999999999999689e-02
4.462267121647510493e+00,-5.999999999999999778e-02
4.464267241379310747e+00,-6.099999999999999867e-02
4.466267361111111889e+00,-5.999999999999999778e-02
4.468267480842912143e+00,-5.800000000000000294e-02
4.470267600574713285e+00,-5.600000000000000117e-02
4.472267720306514427e+00,-5.399999999999999939e-02
4.474267840038314681e+00,-5.199999999999999761e-02
4.476267959770115823e+00,-5.099999999999999672e-02
4.478268079501916077e+00,-4.900000000000000189e-02
4.480268199233717219e+00,-4.800000000000000100e-02
4.482268318965517473e+00,-4.700000000000000011e-02
4.484268438697318615e+00,-4.599999999999999922e-02
4.486268558429119757e+00,-4.499999999999999833e-02
4.488268678160920011e+00,-4.399999999999999745e-02
4.490268797892721153e+00,-4.399999999999999745e-02
4.492268917624521407e+00,-4.399999999999999745e-02
4.494269037356322549e+00,-4.200000000000000261e-02
4.496269157088122803e+00,-4.000000000000000083e-02
4.498269276819923945e+00,-3.599999999999999728e-02
4.500269396551725087e+00,-3.200000000000000067e-02
4.502269516283525341e+00,-2.900000000000000147e-02
4.504269636015326483e+00,-2.699999999999999969e-02
4.506269755747126737e+00,-2.599999999999999881e-02
4.508269875478927879e+00,-2.699999999999999969e-02
4.510269995210728133e+00,-2.699999999999999969e-02
4.512270114942529275e+00,-2.800000000000000058e-02
4.514270234674330418e+00,-2.699999999999999969e-02
4.516270354406130672e+00,-2.500000000000000139e-02
4.518270474137931814e+00,-2.000000000000000042e-02
4.520270593869732068e+00,-1.499999999999999944e-02
4.522270713601533210e+00,-8.000000000000000167e-03
4.524270833333334352e+00,-2.000000000000000042e-03
4.526270953065134606e+00,3.000000000000000062e-03
4.528271072796935748e+00,8.000000000000000167e-03
4.530271192528736002e+00,1.200000000000000025e-02
4.532271312260537144e+00,1.499999999999999944e-02
4.534271431992337398e+00,1.799999999999999864e-02
4.536271551724138540e+00,2.000000000000000042e-02
4.538271671455939682e+00,2.400000000000000050e-02
4.540271791187739936e+00,2.800000000000000058e-02
4.542271910919541078e+00,3.300000000000000155e-02
4.544272030651341332e+00,3.899999999999999994e-02
4.546272150383142474e+00,4.399999999999999745e-02
4.548272270114942728e+00,4.599999999999999922e-02
4.550272389846743870e+00,4.599999999999999922e-02
4.552272509578545012e+00,4.100000000000000172e-02
4.554272629310345266e+00,3.200000000000000067e-02
4.556272749042146408e+00,2.100000000000000130e-02
4.558272868773946662e+00,8.999999999999999320e-03
4.560272988505747804e+00,-4.000000000000000083e-03
4.562273108237548058e+00,-1.499999999999999944e-02
4.564273227969349200e+00,-2.500000000000000139e-02
4.566273347701150342e+00,-3.500000000000000333e-02
4.568273467432950596e+00,-4.399999999999999745e-02
4.570273587164751738e+00,-5.199999999999999761e-02
4.572273706896551992e+00,-5.899999999999999689e-02
4.574273826628353135e+00,-6.400000000000000133e-02
4.576273946360154277e+00,-6.700000000000000400e-02
4.578274066091954531e+00,-6.900000000000000577e-02
4.580274185823755673e+00,-7.099999999999999367e-02
4.582274305555555927e+00,-7.299999999999999545e-02
4.584274425287357069e+00,-7.599999999999999811e-02
4.586274545019157323e+00,-7.900000000000000078e-02
4.588274664750958465e+00,-8.200000000000000344e-02
4.590274784482759607e+00,-8.500000000000000611e-02
4.592274904214559861e+00,-8.599999999999999312e-02
4.594275023946361003e+00,-8.699999999999999400e-02
4.596275143678161257e+00,-8.599999999999999312e-02
4.598275263409962399e+00,-8.500000000000000611e-02
4.600275383141762653e+00,-8.200000000000000344e-02
4.602275502873563795e+00,-8.000000000000000167e-02
4.604275622605364937e+00,-7.799999999999999989e-02
4.606275742337165191e+00,-7.799999999999999989e-02
4.608275862068966333e+00,-8.000000000000000167e-02
4.610275981800766587e+00,-8.300000000000000433e-02
4.612276101532567729e+00,-8.699999999999999400e-02
4.614276221264367983e+00,-8.999999999999999667e-02
4.616276340996169125e+00,-9.099999999999999756e-02
4.618276460727970267e+00,-8.999999999999999667e-02
4.620276580459770521e+00,-8.500000000000000611e-02
4.622276700191571663e+00,-7.900000000000000078e-02
4.624276819923371917e+00,-7.399999999999999634e-02
4.626276939655173059e+00,-7.099999999999999367e-02
4.628277059386974202e+00,-7.199999999999999456e-02
4.630277179118774455e+00,-7.599999999999999811e-02
4.632277298850575598e+00,-8.300000000000000433e-02
4.634277418582375851e+00,-9.199999999999999845e-02
4.636277538314176994e+00,-1.019999999999999934e-01
4.638277658045977248e+00,-1.100000000000000006e-01
4.640277777777778390e+00,-1.170000000000000068e-01
4.642277897509579532e+00,-1.209999999999999964e-01
4.644278017241379786e+00,-1.209999999999999964e-01
4.646278136973180928e+00,-1.140000000000000041e-01
4.648278256704981182e+00,-9.700000000000000289e-02
4.650278376436782324e+00,-6.600000000000000311e-02
4.652278496168582578e+00,-1.899999999999999953e-02
4.654278615900383720e+00,4.700000000000000011e-02
4.656278735632184862e+00,1.320000000000000062e-01
4.658278855363985116e+00,2.330000000000000127e-01
4.660278975095786258e+00,3.430000000000000271e-01
4.662279094827586512e+00,4.530000000000000138e-01
4.664279214559387654e+00,5.530000000000000471e-01
4.666279334291187908e+00,6.350000000000000089e-01
4.668279454022989050e+00,6.889999999999999458e-01
4.670279573754790192e+00,7.099999999999999645e-01
4.672279693486590446e+00,6.909999999999999476e-01
4.674279813218391588e+00,6.290000000000000036e-01
4.676279932950191842e+00,5.240000000000000213e-01
4.678280052681992984e+00,3.800000000000000044e-01
4.680280172413794126e+00,2.079999999999999905e-01
4.682280292145594380e+00,2.599999999999999881e-02
4.684280411877395522e+00,-1.469999999999999918e-01
4.686280531609195776e+00,-2.929999999999999827e-01
4.688280651340996918e+00,-3.980000000000000204e-01
4.690280771072797172e+00,-4.580000000000000182e-01
4.692280890804598315e+00,-4.779999999999999805e-01
4.694281010536399457e+00,-4.680000000000000271e-01
4.696281130268199711e+00,-4.410000000000000031e-01
4.698281250000000853e+00,-4.060000000000000275e-01
4.700281369731801107e+00,-3.709999999999999964e-01
4.702281489463602249e+00,-3.400000000000000244e-01
4.704281609195402503e+00,-3.150000000000000022e-01
4.706281728927203645e+00,-2.959999999999999853e-01
4.708281848659004787e+00,-2.819999999999999729e-01
4.710281968390805041e+00,-2.720000000000000195e-01
4.712282088122606183e+00,-2.630000000000000115e-01
4.714282207854406437e+00,-2.530000000000000027e-01
4.716282327586207579e+00,-2.369999999999999885e-01
4.718282447318007833e+00,-2.139999999999999958e-01
4.720282567049808975e+00,-1.849999999999999978e-01
4.722282686781610117e+00,-1.519999999999999962e-01
4.724282806513410371e+00,-1.209999999999999964e-01
4.726282926245211513e+00,-9.500000000000000111e-02
4.728283045977011767e+00,-7.799999999999999989e-02
4.730283165708812909e+00,-6.900000000000000577e-02
4.732283285440614051e+00,-6.700000000000000400e-02
